## EBL from Khaire & Srianand 2018; Q16 Model with alpha=-1.6 
## Column1:wavelength (Angstrom);  Column2:EBL specific intensity J_nu (erg/s/cm^2/Hz/Sr)
## ===========================================================================================
 1.000000e-08     4.610714e-38
 1.122019e-08     6.730579e-38
 1.258925e-08     9.798068e-38
 1.412538e-08     1.418661e-37
 1.584893e-08     2.038035e-37
 1.778279e-08     2.898965e-37
 1.995263e-08     4.076256e-37
 2.238721e-08     5.659303e-37
 2.511887e-08     7.752904e-37
 2.818382e-08     1.047813e-36
 3.162278e-08     1.397389e-36
 3.548135e-08     1.839888e-36
 3.981071e-08     2.393440e-36
 4.466837e-08     3.078789e-36
 5.011870e-08     3.919664e-36
 5.623413e-08     4.943303e-36
 6.309576e-08     6.180954e-36
 7.079456e-08     7.668532e-36
 7.943284e-08     9.447439e-36
 8.912505e-08     1.156532e-35
 1.000000e-07     1.407725e-35
 1.122019e-07     1.704680e-35
 1.258925e-07     2.054744e-35
 1.412538e-07     2.466428e-35
 1.584892e-07     2.949569e-35
 1.778279e-07     3.515581e-35
 1.995263e-07     4.177668e-35
 2.238721e-07     4.951127e-35
 2.511887e-07     5.853704e-35
 2.818382e-07     6.905942e-35
 3.162278e-07     8.131675e-35
 3.548136e-07     9.558508e-35
 3.981071e-07     1.121842e-34
 4.466837e-07     1.314854e-34
 5.011870e-07     1.539181e-34
 5.623413e-07     1.799808e-34
 6.309576e-07     2.102509e-34
 7.079456e-07     2.453971e-34
 7.943284e-07     2.861956e-34
 8.912505e-07     3.335444e-34
 1.000000e-06     3.884860e-34
 1.122019e-06     4.522270e-34
 1.258925e-06     5.261653e-34
 1.412538e-06     6.119237e-34
 1.584893e-06     7.113788e-34
 1.778279e-06     8.267087e-34
 1.995263e-06     9.604369e-34
 2.238721e-06     1.115484e-33
 2.511887e-06     1.295240e-33
 2.818382e-06     1.503628e-33
 3.162278e-06     1.745200e-33
 3.548136e-06     2.025227e-33
 3.981071e-06     2.349813e-33
 4.466837e-06     2.726042e-33
 5.011870e-06     3.162111e-33
 5.623413e-06     3.667531e-33
 6.309576e-06     4.253314e-33
 7.079456e-06     4.932214e-33
 7.943284e-06     5.719036e-33
 8.912505e-06     6.630901e-33
 1.000000e-05     7.687693e-33
 1.122019e-05     8.912413e-33
 1.258925e-05     1.033170e-32
 1.412538e-05     1.197650e-32
 1.584893e-05     1.388259e-32
 1.778279e-05     1.609147e-32
 1.995263e-05     1.865125e-32
 2.238721e-05     2.161760e-32
 2.511887e-05     2.505511e-32
 2.818382e-05     2.903857e-32
 3.162278e-05     3.365472e-32
 3.548135e-05     3.900397e-32
 3.981071e-05     4.520271e-32
 4.466837e-05     5.238594e-32
 5.011870e-05     6.070980e-32
 5.623413e-05     7.035557e-32
 6.309577e-05     8.153310e-32
 7.079457e-05     9.448545e-32
 7.943284e-05     1.094947e-31
 8.912505e-05     1.268871e-31
 1.000000e-04     1.470415e-31
 1.122018e-04     1.703959e-31
 1.258926e-04     1.974586e-31
 1.412538e-04     2.287828e-31
 1.584893e-04     2.650096e-31
 1.778279e-04     3.068813e-31
 1.995262e-04     3.552539e-31
 2.238722e-04     4.111270e-31
 2.511887e-04     4.756820e-31
 2.818383e-04     5.503303e-31
 3.162278e-04     6.367608e-31
 3.548134e-04     7.369892e-31
 3.981073e-04     8.534104e-31
 4.466837e-04     9.888557e-31
 5.011873e-04     1.146665e-30
 5.623413e-04     1.330773e-30
 6.309572e-04     1.545818e-30
 7.079460e-04     1.797275e-30
 7.943284e-04     2.091607e-30
 8.912510e-04     2.436467e-30
 1.000000e-03     2.840912e-30
 1.122018e-03     3.315675e-30
 1.258926e-03     3.873496e-30
 1.412538e-03     4.529479e-30
 1.584893e-03     5.301576e-30
 1.778279e-03     6.211125e-30
 1.995262e-03     7.283494e-30
 2.238722e-03     8.548866e-30
 2.511887e-03     1.004315e-29
 2.818383e-03     1.180916e-29
 3.162278e-03     1.389787e-29
 3.548133e-03     1.637005e-29
 3.981073e-03     1.929822e-29
 4.466837e-03     2.276882e-29
 5.011873e-03     2.688512e-29
 5.623413e-03     3.177038e-29
 6.309573e-03     3.757195e-29
 7.079460e-03     4.446612e-29
 7.943284e-03     5.266408e-29
 8.912510e-03     6.241967e-29
 1.000000e-02     7.403911e-29
 1.122019e-02     8.789362e-29
 1.258925e-02     1.044354e-28
 1.412538e-02     1.242193e-28
 1.584894e-02     1.479279e-28
 1.778279e-02     1.764040e-28
 1.995263e-02     2.106902e-28
 2.238721e-02     2.520711e-28
 2.511887e-02     3.021268e-28
 2.818385e-02     3.627869e-28
 3.162277e-02     4.363921e-28
 3.548136e-02     5.257665e-28
 3.981071e-02     6.342829e-28
 4.466837e-02     7.659561e-28
 5.011876e-02     9.255288e-28
 5.623413e-02     1.118583e-27
 6.309576e-02     1.351679e-27
 7.079456e-02     1.632499e-27
 7.943284e-02     1.970064e-27
 8.912515e-02     2.374947e-27
 1.000000e-01     2.859582e-27
 1.122019e-01     3.438636e-27
 1.258925e-01     4.128700e-27
 1.412538e-01     4.946185e-27
 1.584894e-01     5.906876e-27
 1.778279e-01     7.024565e-27
 1.995263e-01     8.309323e-27
 2.238721e-01     9.765896e-27
 2.511887e-01     1.139297e-26
 2.818385e-01     1.318329e-26
 3.162278e-01     1.512475e-26
 3.548135e-01     1.720219e-26
 3.981071e-01     1.939907e-26
 4.466837e-01     2.169909e-26
 5.011876e-01     2.408711e-26
 5.623413e-01     2.654980e-26
 6.309576e-01     2.907593e-26
 7.079456e-01     3.165624e-26
 7.943284e-01     3.428351e-26
 8.912515e-01     3.695224e-26
 1.000000e+00     3.965856e-26
 1.122019e+00     4.240008e-26
 1.258925e+00     4.517557e-26
 1.412538e+00     4.798498e-26
 1.584894e+00     5.082877e-26
 1.778279e+00     5.370124e-26
 1.995263e+00     5.660060e-26
 2.238721e+00     5.952770e-26
 2.511887e+00     6.248721e-26
 2.818385e+00     6.549127e-26
 3.162278e+00     6.856351e-26
 3.548136e+00     7.174210e-26
 3.981071e+00     7.508036e-26
 4.466837e+00     7.864614e-26
 5.011876e+00     8.252026e-26
 5.623413e+00     8.679618e-26
 6.309576e+00     9.158111e-26
 7.079456e+00     9.697710e-26
 7.943284e+00     1.031102e-25
 8.912516e+00     1.101343e-25
 1.000000e+01     1.182366e-25
 1.122019e+01     1.276531e-25
 1.258925e+01     1.386843e-25
 1.412538e+01     1.517119e-25
 1.584894e+01     1.672095e-25
 1.778279e+01     1.857494e-25
 1.995263e+01     2.080058e-25
 2.238721e+01     2.347528e-25
 2.511887e+01     2.668603e-25
 2.818385e+01     3.052778e-25
 3.162278e+01     3.510030e-25
 3.548135e+01     4.050235e-25
 3.981071e+01     4.682195e-25
 4.466837e+01     5.412313e-25
 5.011876e+01     6.242943e-25
 5.623413e+01     7.170868e-25
 6.309576e+01     8.186323e-25
 7.079456e+01     9.274426e-25
 7.943284e+01     1.042271e-24
 8.912515e+01     1.161658e-24
 1.000000e+02     1.287523e-24
 1.120000e+02     1.423484e-24
 1.250000e+02     1.569858e-24
 1.400000e+02     1.740601e-24
 1.550000e+02     1.910980e-24
 1.650000e+02     2.022380e-24
 1.750000e+02     2.130371e-24
 1.850000e+02     2.235969e-24
 1.900000e+02     2.287812e-24
 1.950000e+02     2.338364e-24
 2.000000e+02     2.389288e-24
 2.050000e+02     2.438639e-24
 2.100000e+02     2.492609e-24
 2.150000e+02     2.555708e-24
 2.180000e+02     2.601434e-24
 2.210000e+02     2.657857e-24
 2.240000e+02     2.732628e-24
 2.260000e+02     2.794184e-24
 2.270000e+02     2.830504e-24
 2.275000e+02     2.850086e-24
 2.278400e+02     2.864672e-24
 2.380000e+02     3.141971e-24
 2.500000e+02     3.468210e-24
 2.700000e+02     4.104549e-24
 2.900000e+02     4.781311e-24
 3.035000e+02     5.282558e-24
 3.037800e+02     6.022435e-24
 3.045000e+02     6.056015e-24
 3.060000e+02     6.126456e-24
 3.080000e+02     6.220362e-24
 3.100000e+02     6.314268e-24
 3.120000e+02     6.408194e-24
 3.150000e+02     6.548260e-24
 3.200000e+02     6.777991e-24
 3.250000e+02     7.006613e-24
 3.300000e+02     7.238982e-24
 3.400000e+02     7.734976e-24
 3.600000e+02     8.775696e-24
 3.800000e+02     9.843249e-24
 4.050000e+02     1.120096e-23
 4.250000e+02     1.231985e-23
 4.500000e+02     1.373962e-23
 4.650000e+02     1.457098e-23
 4.750000e+02     1.512312e-23
 4.820000e+02     1.551001e-23
 4.870000e+02     1.579052e-23
 4.910000e+02     1.600502e-23
 4.950000e+02     1.623905e-23
 4.980000e+02     1.639839e-23
 5.000000e+02     1.650457e-23
 5.020000e+02     1.661071e-23
 5.039800e+02     1.671732e-23
 5.100000e+02     1.704429e-23
 5.250000e+02     1.785835e-23
 5.600000e+02     1.973320e-23
 6.000000e+02     2.189574e-23
 6.500000e+02     2.444998e-23
 7.000000e+02     2.689169e-23
 7.500000e+02     2.934919e-23
 8.000000e+02     3.192247e-23
 8.300000e+02     3.354754e-23
 8.600000e+02     3.524420e-23
 8.800000e+02     3.645756e-23
 8.900000e+02     3.709306e-23
 8.960000e+02     3.747972e-23
 9.000000e+02     3.774045e-23
 9.030000e+02     3.793893e-23
 9.060000e+02     3.817643e-23
 9.090000e+02     3.837784e-23
 9.117800e+02     3.856503e-23
 9.300000e+02     5.587933e-23
 9.500000e+02     6.626822e-23
 9.750000e+02     7.996139e-23
 9.900000e+02     9.102412e-23
 1.005000e+03     1.086300e-22
 1.025000e+03     1.358126e-22
 1.045000e+03     1.587590e-22
 1.065000e+03     1.852714e-22
 1.085000e+03     2.205523e-22
 1.105000e+03     2.537837e-22
 1.125000e+03     2.927005e-22
 1.145000e+03     3.270612e-22
 1.165000e+03     3.643715e-22
 1.185000e+03     4.041198e-22
 1.205000e+03     4.429320e-22
 1.215600e+03     4.624453e-22
 1.215670e+03     4.680142e-22
 1.216000e+03     4.685915e-22
 1.218000e+03     4.722724e-22
 1.221000e+03     4.778693e-22
 1.225000e+03     4.854183e-22
 1.230000e+03     4.955686e-22
 1.240000e+03     5.183624e-22
 1.250000e+03     5.414636e-22
 1.265000e+03     5.820234e-22
 1.285000e+03     6.325145e-22
 1.305000e+03     6.858039e-22
 1.325000e+03     7.436747e-22
 1.345000e+03     8.015977e-22
 1.365000e+03     8.582034e-22
 1.385000e+03     9.194052e-22
 1.405000e+03     9.791942e-22
 1.425000e+03     1.041217e-21
 1.442000e+03     1.093198e-21
 1.455000e+03     1.135651e-21
 1.475000e+03     1.200010e-21
 1.517000e+03     1.329978e-21
 1.595000e+03     1.575239e-21
 1.672000e+03     1.820875e-21
 1.745000e+03     2.055129e-21
 1.825000e+03     2.314757e-21
 1.905000e+03     2.565225e-21
 1.984000e+03     2.809474e-21
 2.065000e+03     3.049033e-21
 2.135000e+03     3.245636e-21
 2.215000e+03     3.463816e-21
 2.295000e+03     3.682133e-21
 2.375000e+03     3.900066e-21
 2.455000e+03     4.123861e-21
 2.525000e+03     4.319146e-21
 2.605000e+03     4.549408e-21
 2.685000e+03     4.798769e-21
 2.765000e+03     5.049713e-21
 2.845000e+03     5.284042e-21
 2.950000e+03     5.619937e-21
 3.110000e+03     6.176609e-21
 3.270000e+03     6.736247e-21
 3.430000e+03     7.320365e-21
 3.590000e+03     7.905545e-21
 3.730000e+03     8.442768e-21
 3.890000e+03     9.218976e-21
 4.050000e+03     1.002814e-20
 4.210000e+03     1.112513e-20
 4.370000e+03     1.227805e-20
 4.530000e+03     1.342741e-20
 4.690000e+03     1.469992e-20
 4.850000e+03     1.597172e-20
 5.010000e+03     1.720428e-20
 5.170000e+03     1.842937e-20
 5.330000e+03     1.972172e-20
 5.490000e+03     2.099148e-20
 5.650000e+03     2.231883e-20
 5.810000e+03     2.367104e-20
 5.970000e+03     2.495997e-20
 6.130000e+03     2.629684e-20
 6.290000e+03     2.758739e-20
 6.450000e+03     2.886236e-20
 6.610000e+03     3.011367e-20
 6.770000e+03     3.137748e-20
 6.930000e+03     3.260133e-20
 7.090000e+03     3.380755e-20
 7.250000e+03     3.498980e-20
 7.410000e+03     3.614209e-20
 7.570000e+03     3.728206e-20
 7.730000e+03     3.842897e-20
 7.890000e+03     3.954036e-20
 8.050000e+03     4.062956e-20
 8.210000e+03     4.170100e-20
 8.370000e+03     4.274930e-20
 8.530000e+03     4.375770e-20
 8.690000e+03     4.475879e-20
 8.850000e+03     4.574861e-20
 9.010000e+03     4.671562e-20
 9.170000e+03     4.765828e-20
 9.330000e+03     4.860900e-20
 9.490000e+03     4.953978e-20
 9.650000e+03     5.043216e-20
 9.810000e+03     5.133106e-20
 9.970000e+03     5.219095e-20
 1.050000e+04     5.491302e-20
 1.150000e+04     5.931560e-20
 1.250000e+04     6.306587e-20
 1.350000e+04     6.618319e-20
 1.450000e+04     6.887561e-20
 1.550000e+04     7.127821e-20
 1.650000e+04     7.340073e-20
 1.750000e+04     7.501174e-20
 1.850000e+04     7.605478e-20
 1.950000e+04     7.661314e-20
 2.050000e+04     7.677964e-20
 2.150000e+04     7.662799e-20
 2.250000e+04     7.600865e-20
 2.350000e+04     7.521831e-20
 2.450000e+04     7.442788e-20
 2.550000e+04     7.357546e-20
 2.650000e+04     7.266834e-20
 2.750000e+04     7.175014e-20
 2.850000e+04     7.085358e-20
 2.950000e+04     6.999957e-20
 3.050000e+04     6.918907e-20
 3.150000e+04     6.845367e-20
 3.250000e+04     6.782347e-20
 3.350000e+04     6.729990e-20
 3.450000e+04     6.688549e-20
 3.550000e+04     6.660704e-20
 3.650000e+04     6.647046e-20
 3.750000e+04     6.639101e-20
 3.850000e+04     6.623947e-20
 3.950000e+04     6.608204e-20
 4.050000e+04     6.601005e-20
 4.150000e+04     6.604105e-20
 4.250000e+04     6.615284e-20
 4.350000e+04     6.630653e-20
 4.450000e+04     6.650593e-20
 4.550000e+04     6.675351e-20
 4.650000e+04     6.704072e-20
 4.750000e+04     6.735865e-20
 4.850000e+04     6.771159e-20
 4.950000e+04     6.811524e-20
 5.050000e+04     6.855788e-20
 5.150000e+04     6.902580e-20
 5.250000e+04     6.951432e-20
 5.350000e+04     6.989840e-20
 5.450000e+04     7.019608e-20
 5.550000e+04     7.055444e-20
 5.650000e+04     7.094572e-20
 5.750000e+04     7.138566e-20
 5.850000e+04     7.187215e-20
 5.950000e+04     7.237016e-20
 6.050000e+04     7.309271e-20
 6.150000e+04     7.483322e-20
 6.250000e+04     7.792137e-20
 6.350000e+04     8.027272e-20
 6.450000e+04     8.165551e-20
 6.550000e+04     8.278470e-20
 6.650010e+04     8.404596e-20
 6.750010e+04     8.521976e-20
 6.850010e+04     8.635531e-20
 6.950010e+04     8.800525e-20
 7.020000e+04     8.936309e-20
 7.100000e+04     9.077800e-20
 7.180000e+04     9.212386e-20
 7.260000e+04     9.354445e-20
 7.340000e+04     9.528441e-20
 7.420000e+04     9.758936e-20
 7.500000e+04     1.004090e-19
 7.580000e+04     1.038737e-19
 7.660000e+04     1.076489e-19
 7.740000e+04     1.112631e-19
 7.820000e+04     1.145996e-19
 7.900000e+04     1.178791e-19
 7.980000e+04     1.210592e-19
 8.060000e+04     1.238280e-19
 8.140000e+04     1.261668e-19
 8.220000e+04     1.281165e-19
 8.300000e+04     1.300099e-19
 8.380000e+04     1.318652e-19
 8.460000e+04     1.338288e-19
 8.540000e+04     1.360398e-19
 8.620000e+04     1.383957e-19
 8.700000e+04     1.407744e-19
 8.780000e+04     1.427361e-19
 8.860000e+04     1.443324e-19
 8.940000e+04     1.456921e-19
 9.020000e+04     1.469165e-19
 9.100000e+04     1.480574e-19
 9.180000e+04     1.490584e-19
 9.260000e+04     1.499456e-19
 9.340000e+04     1.508110e-19
 9.420000e+04     1.516274e-19
 9.500000e+04     1.525078e-19
 9.580000e+04     1.534925e-19
 9.660000e+04     1.546316e-19
 9.740000e+04     1.557738e-19
 9.820000e+04     1.567022e-19
 9.900000e+04     1.575922e-19
 9.980000e+04     1.585205e-19
 1.006000e+05     1.594554e-19
 1.020000e+05     1.610137e-19
 1.040000e+05     1.634279e-19
 1.060000e+05     1.659802e-19
 1.080000e+05     1.687195e-19
 1.100000e+05     1.713913e-19
 1.120000e+05     1.760145e-19
 1.140000e+05     1.829758e-19
 1.160000e+05     1.865801e-19
 1.180000e+05     1.887066e-19
 1.200000e+05     1.911096e-19
 1.220000e+05     1.918068e-19
 1.240000e+05     1.932959e-19
 1.260000e+05     1.952824e-19
 1.280000e+05     1.981000e-19
 1.300000e+05     2.006492e-19
 1.320000e+05     1.996935e-19
 1.340000e+05     1.998997e-19
 1.360000e+05     2.008231e-19
 1.380000e+05     2.016350e-19
 1.400000e+05     2.010353e-19
 1.420000e+05     2.020003e-19
 1.440000e+05     2.027370e-19
 1.460000e+05     2.034909e-19
 1.480000e+05     2.040450e-19
 1.500000e+05     2.041245e-19
 1.520000e+05     2.047572e-19
 1.540000e+05     2.058788e-19
 1.560000e+05     2.079971e-19
 1.580000e+05     2.093033e-19
 1.600000e+05     2.091665e-19
 1.620000e+05     2.101457e-19
 1.640000e+05     2.120894e-19
 1.660000e+05     2.144790e-19
 1.680000e+05     2.164312e-19
 1.700000e+05     2.181648e-19
 1.720000e+05     2.203668e-19
 1.740000e+05     2.224188e-19
 1.760000e+05     2.246354e-19
 1.780000e+05     2.260320e-19
 1.800000e+05     2.271228e-19
 1.820000e+05     2.279135e-19
 1.840000e+05     2.287981e-19
 1.860000e+05     2.298583e-19
 1.880000e+05     2.320318e-19
 1.900000e+05     2.333410e-19
 1.920000e+05     2.343891e-19
 1.940000e+05     2.353593e-19
 1.960000e+05     2.365416e-19
 1.980000e+05     2.378000e-19
 2.000000e+05     2.390993e-19
 2.020000e+05     2.404225e-19
 2.040000e+05     2.413745e-19
 2.060000e+05     2.428302e-19
 2.080000e+05     2.446078e-19
 2.100000e+05     2.462988e-19
 2.120000e+05     2.482259e-19
 2.140000e+05     2.499890e-19
 2.160000e+05     2.520671e-19
 2.180000e+05     2.541802e-19
 2.200000e+05     2.563714e-19
 2.220000e+05     2.587315e-19
 2.240000e+05     2.611620e-19
 2.260000e+05     2.635920e-19
 2.280000e+05     2.661383e-19
 2.300000e+05     2.689090e-19
 2.320000e+05     2.718300e-19
 2.340000e+05     2.746713e-19
 2.360000e+05     2.774552e-19
 2.380000e+05     2.806478e-19
 2.400000e+05     2.838697e-19
 2.420000e+05     2.870022e-19
 2.440000e+05     2.902748e-19
 2.460000e+05     2.936172e-19
 2.480000e+05     2.969560e-19
 2.500000e+05     3.003326e-19
 2.520000e+05     3.037859e-19
 2.540000e+05     3.073341e-19
 2.560000e+05     3.109695e-19
 2.580000e+05     3.147820e-19
 2.600000e+05     3.187946e-19
 2.620000e+05     3.227761e-19
 2.640000e+05     3.266710e-19
 2.660000e+05     3.305777e-19
 2.680000e+05     3.345643e-19
 2.700000e+05     3.386673e-19
 2.720000e+05     3.428552e-19
 2.740000e+05     3.470888e-19
 2.760000e+05     3.514059e-19
 2.780000e+05     3.558456e-19
 2.800000e+05     3.603649e-19
 2.820000e+05     3.650183e-19
 2.840000e+05     3.698250e-19
 2.860000e+05     3.746284e-19
 2.880000e+05     3.794813e-19
 2.900000e+05     3.844304e-19
 2.920000e+05     3.894858e-19
 2.940000e+05     3.946473e-19
 2.960000e+05     3.998978e-19
 2.980000e+05     4.052223e-19
 3.000000e+05     4.106212e-19
 3.020000e+05     4.161092e-19
 3.040000e+05     4.217264e-19
 3.060000e+05     4.274172e-19
 3.080000e+05     4.332593e-19
 3.100000e+05     4.391977e-19
 3.120000e+05     4.451927e-19
 3.140000e+05     4.512688e-19
 3.160000e+05     4.574488e-19
 3.180000e+05     4.637630e-19
 3.200000e+05     4.702268e-19
 3.220000e+05     4.768379e-19
 3.240000e+05     4.835523e-19
 3.260000e+05     4.903699e-19
 3.280000e+05     4.973228e-19
 3.300000e+05     5.044292e-19
 3.320000e+05     5.117392e-19
 3.340000e+05     5.197732e-19
 3.360000e+05     5.289170e-19
 3.380000e+05     5.372098e-19
 3.400000e+05     5.448080e-19
 3.420000e+05     5.524237e-19
 3.440000e+05     5.601250e-19
 3.460000e+05     5.681089e-19
 3.480000e+05     5.778027e-19
 3.500000e+05     5.885212e-19
 3.520000e+05     5.973549e-19
 3.540000e+05     6.055830e-19
 3.560000e+05     6.139491e-19
 3.580000e+05     6.224323e-19
 3.600000e+05     6.310391e-19
 3.620000e+05     6.396618e-19
 3.640000e+05     6.483972e-19
 3.660000e+05     6.571790e-19
 3.680000e+05     6.661939e-19
 3.700000e+05     6.752735e-19
 3.720000e+05     6.844406e-19
 3.740000e+05     6.938561e-19
 3.760000e+05     7.035536e-19
 3.780000e+05     7.123700e-19
 3.800000e+05     7.218453e-19
 3.820000e+05     7.316730e-19
 3.840000e+05     7.415338e-19
 3.860000e+05     7.514749e-19
 3.880000e+05     7.614758e-19
 3.900000e+05     7.712883e-19
 3.920000e+05     7.813594e-19
 4.320000e+05     1.003282e-18
 4.760000e+05     1.286661e-18
 5.250000e+05     1.642391e-18
 5.790000e+05     2.071183e-18
 6.390000e+05     2.583255e-18
 7.040000e+05     3.172514e-18
 7.760000e+05     3.886968e-18
 8.560000e+05     4.772379e-18
 9.430000e+05     5.819253e-18
 1.040000e+06     7.024169e-18
 1.147000e+06     8.305339e-18
 1.264000e+06     9.544908e-18
 1.394000e+06     1.063698e-17
 1.537000e+06     1.145574e-17
 1.694000e+06     1.191900e-17
 1.868000e+06     1.198868e-17
 2.059000e+06     1.167387e-17
 2.270000e+06     1.102326e-17
 2.503000e+06     1.011505e-17
 2.760000e+06     9.041563e-18
 3.043000e+06     7.894597e-18
 3.354000e+06     6.752774e-18
 3.698000e+06     5.666519e-18
