## EBL from Khaire & Srianand 2018; Q16 Model with alpha=-1.6 
## Column1:wavelength (Angstrom);  Column2:EBL specific intensity J_nu (erg/s/cm^2/Hz/Sr)
## ===========================================================================================
 1.000000e-08     2.855519e-38
 1.122019e-08     4.169527e-38
 1.258925e-08     6.074219e-38
 1.412538e-08     8.808522e-38
 1.584893e-08     1.268753e-37
 1.778279e-08     1.811606e-37
 1.995263e-08     2.559985e-37
 2.238721e-08     3.575398e-37
 2.511887e-08     4.930981e-37
 2.818382e-08     6.712062e-37
 3.162278e-08     9.017085e-37
 3.548135e-08     1.195877e-36
 3.981071e-08     1.566591e-36
 4.466837e-08     2.028579e-36
 5.011870e-08     2.598670e-36
 5.623413e-08     3.296168e-36
 6.309576e-08     4.143195e-36
 7.079456e-08     5.165158e-36
 7.943284e-08     6.391314e-36
 8.912505e-08     7.855313e-36
 1.000000e-07     9.596012e-36
 1.122019e-07     1.165823e-35
 1.258925e-07     1.409375e-35
 1.412538e-07     1.696253e-35
 1.584892e-07     2.033382e-35
 1.778279e-07     2.428798e-35
 1.995263e-07     2.891794e-35
 2.238721e-07     3.433134e-35
 2.511887e-07     4.065305e-35
 2.818382e-07     4.802760e-35
 3.162278e-07     5.662272e-35
 3.548136e-07     6.663259e-35
 3.981071e-07     7.828221e-35
 4.466837e-07     9.183277e-35
 5.011870e-07     1.075865e-34
 5.623413e-07     1.258940e-34
 6.309576e-07     1.471616e-34
 7.079456e-07     1.718598e-34
 7.943284e-07     2.005346e-34
 8.912505e-07     2.338180e-34
 1.000000e-06     2.724434e-34
 1.122019e-06     3.172598e-34
 1.258925e-06     3.692508e-34
 1.412538e-06     4.295583e-34
 1.584893e-06     4.995027e-34
 1.778279e-06     5.806164e-34
 1.995263e-06     6.746750e-34
 2.238721e-06     7.837341e-34
 2.511887e-06     9.101785e-34
 2.818382e-06     1.056769e-33
 3.162278e-06     1.226708e-33
 3.548136e-06     1.423704e-33
 3.981071e-06     1.652054e-33
 4.466837e-06     1.916741e-33
 5.011870e-06     2.223533e-33
 5.623413e-06     2.579124e-33
 6.309576e-06     2.991260e-33
 7.079456e-06     3.468917e-33
 7.943284e-06     4.022512e-33
 8.912505e-06     4.664092e-33
 1.000000e-05     5.407646e-33
 1.122019e-05     6.269363e-33
 1.258925e-05     7.267992e-33
 1.412538e-05     8.425296e-33
 1.584893e-05     9.766453e-33
 1.778279e-05     1.132068e-32
 1.995263e-05     1.312180e-32
 2.238721e-05     1.520901e-32
 2.511887e-05     1.762775e-32
 2.818382e-05     2.043065e-32
 3.162278e-05     2.367874e-32
 3.548135e-05     2.744268e-32
 3.981071e-05     3.180436e-32
 4.466837e-05     3.685877e-32
 5.011870e-05     4.271580e-32
 5.623413e-05     4.950300e-32
 6.309577e-05     5.736802e-32
 7.079457e-05     6.648188e-32
 7.943284e-05     7.704308e-32
 8.912505e-05     8.928123e-32
 1.000000e-04     1.034628e-31
 1.122018e-04     1.198962e-31
 1.258926e-04     1.389389e-31
 1.412538e-04     1.609879e-31
 1.584893e-04     1.865007e-31
 1.778279e-04     2.160051e-31
 1.995262e-04     2.501073e-31
 2.238722e-04     2.895086e-31
 2.511887e-04     3.350303e-31
 2.818383e-04     3.876465e-31
 3.162278e-04     4.485203e-31
 3.548134e-04     5.190421e-31
 3.981073e-04     6.008697e-31
 4.466837e-04     6.959694e-31
 5.011873e-04     8.066655e-31
 5.623413e-04     9.356987e-31
 6.309572e-04     1.086299e-30
 7.079460e-04     1.262276e-30
 7.943284e-04     1.468125e-30
 8.912510e-04     1.709162e-30
 1.000000e-03     1.991676e-30
 1.122018e-03     2.323116e-30
 1.258926e-03     2.712319e-30
 1.412538e-03     3.169754e-30
 1.584893e-03     3.707864e-30
 1.778279e-03     4.341429e-30
 1.995262e-03     5.088018e-30
 2.238722e-03     5.968525e-30
 2.511887e-03     7.007802e-30
 2.818383e-03     8.235455e-30
 3.162278e-03     9.686759e-30
 3.548133e-03     1.140372e-29
 3.981073e-03     1.343646e-29
 4.466837e-03     1.584472e-29
 5.011873e-03     1.869983e-29
 5.623413e-03     2.208695e-29
 6.309573e-03     2.610779e-29
 7.079460e-03     3.088400e-29
 7.943284e-03     3.656119e-29
 8.912510e-03     4.331417e-29
 1.000000e-02     5.135337e-29
 1.122019e-02     6.093324e-29
 1.258925e-02     7.236273e-29
 1.412538e-02     8.601970e-29
 1.584894e-02     1.023674e-28
 1.778279e-02     1.219765e-28
 1.995263e-02     1.455522e-28
 2.238721e-02     1.739634e-28
 2.511887e-02     2.082807e-28
 2.818385e-02     2.498158e-28
 3.162277e-02     3.001656e-28
 3.548136e-02     3.612655e-28
 3.981071e-02     4.354380e-28
 4.466837e-02     5.254595e-28
 5.011876e-02     6.346219e-28
 5.623413e-02     7.668121e-28
 6.309576e-02     9.266077e-28
 7.079456e-02     1.119375e-27
 7.943284e-02     1.351417e-27
 8.912515e-02     1.630121e-27
 1.000000e-01     1.964159e-27
 1.122019e-01     2.363751e-27
 1.258925e-01     2.840603e-27
 1.412538e-01     3.406892e-27
 1.584894e-01     4.075002e-27
 1.778279e-01     4.856694e-27
 1.995263e-01     5.761911e-27
 2.238721e-01     6.797402e-27
 2.511887e-01     7.965724e-27
 2.818385e-01     9.264727e-27
 3.162278e-01     1.068786e-26
 3.548135e-01     1.222519e-26
 3.981071e-01     1.386464e-26
 4.466837e-01     1.559348e-26
 5.011876e-01     1.739924e-26
 5.623413e-01     1.927053e-26
 6.309576e-01     2.119749e-26
 7.079456e-01     2.317174e-26
 7.943284e-01     2.518659e-26
 8.912515e-01     2.723674e-26
 1.000000e+00     2.931828e-26
 1.122019e+00     3.142855e-26
 1.258925e+00     3.356590e-26
 1.412538e+00     3.572969e-26
 1.584894e+00     3.791988e-26
 1.778279e+00     4.013364e-26
 1.995263e+00     4.236993e-26
 2.238721e+00     4.462885e-26
 2.511887e+00     4.691210e-26
 2.818385e+00     4.922499e-26
 3.162278e+00     5.157947e-26
 3.548136e+00     5.399708e-26
 3.981071e+00     5.651068e-26
 4.466837e+00     5.916503e-26
 5.011876e+00     6.201587e-26
 5.623413e+00     6.512915e-26
 6.309576e+00     6.858102e-26
 7.079456e+00     7.244838e-26
 7.943284e+00     7.682205e-26
 8.912516e+00     8.180988e-26
 1.000000e+01     8.754010e-26
 1.122019e+01     9.417015e-26
 1.258925e+01     1.018981e-25
 1.412538e+01     1.109759e-25
 1.584894e+01     1.217197e-25
 1.778279e+01     1.345184e-25
 1.995263e+01     1.498377e-25
 2.238721e+01     1.682196e-25
 2.511887e+01     1.902808e-25
 2.818385e+01     2.167031e-25
 3.162278e+01     2.482151e-25
 3.548135e+01     2.855588e-25
 3.981071e+01     3.294276e-25
 4.466837e+01     3.803811e-25
 5.011876e+01     4.387271e-25
 5.623413e+01     5.043982e-25
 6.309576e+01     5.768563e-25
 7.079456e+01     6.550838e-25
 7.943284e+01     7.378551e-25
 8.912515e+01     8.241840e-25
 1.000000e+02     9.135147e-25
 1.120000e+02     1.006713e-24
 1.250000e+02     1.105126e-24
 1.400000e+02     1.217498e-24
 1.550000e+02     1.329272e-24
 1.650000e+02     1.402791e-24
 1.750000e+02     1.474614e-24
 1.850000e+02     1.544033e-24
 1.900000e+02     1.577923e-24
 1.950000e+02     1.611276e-24
 2.000000e+02     1.644719e-24
 2.050000e+02     1.677298e-24
 2.100000e+02     1.713119e-24
 2.150000e+02     1.754319e-24
 2.180000e+02     1.783663e-24
 2.210000e+02     1.820523e-24
 2.240000e+02     1.865939e-24
 2.260000e+02     1.904763e-24
 2.270000e+02     1.927925e-24
 2.275000e+02     1.940394e-24
 2.278400e+02     1.949239e-24
 2.380000e+02     2.116613e-24
 2.500000e+02     2.322254e-24
 2.700000e+02     2.713026e-24
 2.900000e+02     3.156106e-24
 3.035000e+02     3.473915e-24
 3.037800e+02     3.910167e-24
 3.045000e+02     3.931142e-24
 3.060000e+02     3.975091e-24
 3.080000e+02     4.033655e-24
 3.100000e+02     4.092442e-24
 3.120000e+02     4.150964e-24
 3.150000e+02     4.239008e-24
 3.200000e+02     4.387978e-24
 3.250000e+02     4.538199e-24
 3.300000e+02     4.688965e-24
 3.400000e+02     5.015608e-24
 3.600000e+02     5.666437e-24
 3.800000e+02     6.369188e-24
 4.050000e+02     7.295210e-24
 4.250000e+02     8.060353e-24
 4.500000e+02     9.013646e-24
 4.650000e+02     9.595615e-24
 4.750000e+02     9.987834e-24
 4.820000e+02     1.027713e-23
 4.870000e+02     1.047573e-23
 4.910000e+02     1.063456e-23
 4.950000e+02     1.078601e-23
 4.980000e+02     1.089976e-23
 5.000000e+02     1.097823e-23
 5.020000e+02     1.105554e-23
 5.039800e+02     1.113307e-23
 5.100000e+02     1.137137e-23
 5.250000e+02     1.195733e-23
 5.600000e+02     1.331738e-23
 6.000000e+02     1.481403e-23
 6.500000e+02     1.669340e-23
 7.000000e+02     1.849588e-23
 7.500000e+02     2.024064e-23
 8.000000e+02     2.200924e-23
 8.300000e+02     2.311445e-23
 8.600000e+02     2.428016e-23
 8.800000e+02     2.508322e-23
 8.900000e+02     2.549757e-23
 8.960000e+02     2.574911e-23
 9.000000e+02     2.591868e-23
 9.030000e+02     2.604591e-23
 9.060000e+02     2.619121e-23
 9.090000e+02     2.632188e-23
 9.117800e+02     2.644413e-23
 9.300000e+02     3.414813e-23
 9.500000e+02     4.212441e-23
 9.750000e+02     5.669166e-23
 9.900000e+02     6.835578e-23
 1.005000e+03     7.677374e-23
 1.025000e+03     9.772212e-23
 1.045000e+03     1.107512e-22
 1.065000e+03     1.283855e-22
 1.085000e+03     1.527264e-22
 1.105000e+03     1.802154e-22
 1.125000e+03     2.090562e-22
 1.145000e+03     2.367680e-22
 1.165000e+03     2.640036e-22
 1.185000e+03     2.953360e-22
 1.205000e+03     3.254264e-22
 1.215600e+03     3.402673e-22
 1.215670e+03     3.437184e-22
 1.216000e+03     3.441764e-22
 1.218000e+03     3.469243e-22
 1.221000e+03     3.509246e-22
 1.225000e+03     3.562125e-22
 1.230000e+03     3.624126e-22
 1.240000e+03     3.763357e-22
 1.250000e+03     3.912347e-22
 1.265000e+03     4.165473e-22
 1.285000e+03     4.527974e-22
 1.305000e+03     4.923434e-22
 1.325000e+03     5.311398e-22
 1.345000e+03     5.771553e-22
 1.365000e+03     6.229826e-22
 1.385000e+03     6.686474e-22
 1.405000e+03     7.114138e-22
 1.425000e+03     7.543124e-22
 1.442000e+03     7.942358e-22
 1.455000e+03     8.242516e-22
 1.475000e+03     8.708524e-22
 1.517000e+03     9.661045e-22
 1.595000e+03     1.146370e-21
 1.672000e+03     1.326390e-21
 1.745000e+03     1.503243e-21
 1.825000e+03     1.695285e-21
 1.905000e+03     1.883242e-21
 1.984000e+03     2.065198e-21
 2.065000e+03     2.244164e-21
 2.135000e+03     2.393083e-21
 2.215000e+03     2.557713e-21
 2.295000e+03     2.721181e-21
 2.375000e+03     2.884814e-21
 2.455000e+03     3.052809e-21
 2.525000e+03     3.200489e-21
 2.605000e+03     3.373119e-21
 2.685000e+03     3.562184e-21
 2.765000e+03     3.749284e-21
 2.845000e+03     3.926985e-21
 2.950000e+03     4.182748e-21
 3.110000e+03     4.607908e-21
 3.270000e+03     5.037141e-21
 3.430000e+03     5.490681e-21
 3.590000e+03     5.949405e-21
 3.730000e+03     6.369959e-21
 3.890000e+03     6.964044e-21
 4.050000e+03     7.581836e-21
 4.210000e+03     8.412648e-21
 4.370000e+03     9.299464e-21
 4.530000e+03     1.016426e-20
 4.690000e+03     1.115190e-20
 4.850000e+03     1.214148e-20
 5.010000e+03     1.309413e-20
 5.170000e+03     1.406122e-20
 5.330000e+03     1.506803e-20
 5.490000e+03     1.607214e-20
 5.650000e+03     1.710469e-20
 5.810000e+03     1.818162e-20
 5.970000e+03     1.920431e-20
 6.130000e+03     2.025667e-20
 6.290000e+03     2.129219e-20
 6.450000e+03     2.231428e-20
 6.610000e+03     2.332098e-20
 6.770000e+03     2.435160e-20
 6.930000e+03     2.534031e-20
 7.090000e+03     2.631676e-20
 7.250000e+03     2.727645e-20
 7.410000e+03     2.822575e-20
 7.570000e+03     2.915928e-20
 7.730000e+03     3.009775e-20
 7.890000e+03     3.101596e-20
 8.050000e+03     3.190663e-20
 8.210000e+03     3.279141e-20
 8.370000e+03     3.365977e-20
 8.530000e+03     3.450646e-20
 8.690000e+03     3.533514e-20
 8.850000e+03     3.616322e-20
 9.010000e+03     3.697735e-20
 9.170000e+03     3.776462e-20
 9.330000e+03     3.855159e-20
 9.490000e+03     3.933530e-20
 9.650000e+03     4.008958e-20
 9.810000e+03     4.082746e-20
 9.970000e+03     4.156735e-20
 1.050000e+04     4.386988e-20
 1.150000e+04     4.767624e-20
 1.250000e+04     5.094413e-20
 1.350000e+04     5.368412e-20
 1.450000e+04     5.606664e-20
 1.550000e+04     5.818958e-20
 1.650000e+04     6.007278e-20
 1.750000e+04     6.154164e-20
 1.850000e+04     6.256419e-20
 1.950000e+04     6.319940e-20
 2.050000e+04     6.351609e-20
 2.150000e+04     6.361287e-20
 2.250000e+04     6.344656e-20
 2.350000e+04     6.291876e-20
 2.450000e+04     6.210486e-20
 2.550000e+04     6.140173e-20
 2.650000e+04     6.075126e-20
 2.750000e+04     6.009097e-20
 2.850000e+04     5.941857e-20
 2.950000e+04     5.875374e-20
 3.050000e+04     5.811772e-20
 3.150000e+04     5.752598e-20
 3.250000e+04     5.698593e-20
 3.350000e+04     5.650307e-20
 3.450000e+04     5.609535e-20
 3.550000e+04     5.577903e-20
 3.650000e+04     5.555779e-20
 3.750000e+04     5.543256e-20
 3.850000e+04     5.538405e-20
 3.950000e+04     5.536809e-20
 4.050000e+04     5.535709e-20
 4.150000e+04     5.536189e-20
 4.250000e+04     5.535847e-20
 4.350000e+04     5.537829e-20
 4.450000e+04     5.545693e-20
 4.550000e+04     5.559799e-20
 4.650000e+04     5.578713e-20
 4.750000e+04     5.600329e-20
 4.850000e+04     5.625041e-20
 4.950000e+04     5.653020e-20
 5.050000e+04     5.683571e-20
 5.150000e+04     5.716185e-20
 5.250000e+04     5.750983e-20
 5.350000e+04     5.782447e-20
 5.450000e+04     5.809689e-20
 5.550000e+04     5.840908e-20
 5.650000e+04     5.873651e-20
 5.750000e+04     5.909462e-20
 5.850000e+04     5.946114e-20
 5.950000e+04     5.982826e-20
 6.050000e+04     6.034270e-20
 6.150000e+04     6.149511e-20
 6.250000e+04     6.348491e-20
 6.350000e+04     6.504658e-20
 6.450000e+04     6.601905e-20
 6.550000e+04     6.686010e-20
 6.650010e+04     6.779630e-20
 6.750010e+04     6.858727e-20
 6.850010e+04     6.929102e-20
 6.950010e+04     7.044893e-20
 7.020000e+04     7.133644e-20
 7.100000e+04     7.226693e-20
 7.180000e+04     7.327792e-20
 7.260000e+04     7.443343e-20
 7.340000e+04     7.569347e-20
 7.420000e+04     7.717884e-20
 7.500000e+04     7.909378e-20
 7.580000e+04     8.151151e-20
 7.660000e+04     8.420877e-20
 7.740000e+04     8.686689e-20
 7.820000e+04     8.933876e-20
 7.900000e+04     9.163509e-20
 7.980000e+04     9.375595e-20
 8.060000e+04     9.573108e-20
 8.140000e+04     9.752341e-20
 8.220000e+04     9.907415e-20
 8.300000e+04     1.004852e-19
 8.380000e+04     1.018857e-19
 8.460000e+04     1.032652e-19
 8.540000e+04     1.046144e-19
 8.620000e+04     1.061398e-19
 8.700000e+04     1.078155e-19
 8.780000e+04     1.093011e-19
 8.860000e+04     1.104728e-19
 8.940000e+04     1.114497e-19
 9.020000e+04     1.123275e-19
 9.100000e+04     1.130965e-19
 9.180000e+04     1.137975e-19
 9.260000e+04     1.145456e-19
 9.340000e+04     1.153300e-19
 9.420000e+04     1.160459e-19
 9.500000e+04     1.167280e-19
 9.580000e+04     1.173572e-19
 9.660000e+04     1.180564e-19
 9.740000e+04     1.187850e-19
 9.820000e+04     1.194464e-19
 9.900000e+04     1.200959e-19
 9.980000e+04     1.207401e-19
 1.006000e+05     1.213458e-19
 1.020000e+05     1.223806e-19
 1.040000e+05     1.239843e-19
 1.060000e+05     1.260235e-19
 1.080000e+05     1.281306e-19
 1.100000e+05     1.304608e-19
 1.120000e+05     1.342846e-19
 1.140000e+05     1.399742e-19
 1.160000e+05     1.437550e-19
 1.180000e+05     1.467644e-19
 1.200000e+05     1.496025e-19
 1.220000e+05     1.523830e-19
 1.240000e+05     1.544350e-19
 1.260000e+05     1.568131e-19
 1.280000e+05     1.598837e-19
 1.300000e+05     1.624813e-19
 1.320000e+05     1.631875e-19
 1.340000e+05     1.635754e-19
 1.360000e+05     1.641806e-19
 1.380000e+05     1.645531e-19
 1.400000e+05     1.643386e-19
 1.420000e+05     1.649185e-19
 1.440000e+05     1.641133e-19
 1.460000e+05     1.639714e-19
 1.480000e+05     1.641877e-19
 1.500000e+05     1.645171e-19
 1.520000e+05     1.642591e-19
 1.540000e+05     1.644122e-19
 1.560000e+05     1.652174e-19
 1.580000e+05     1.659994e-19
 1.600000e+05     1.667470e-19
 1.620000e+05     1.674409e-19
 1.640000e+05     1.682751e-19
 1.660000e+05     1.697540e-19
 1.680000e+05     1.714176e-19
 1.700000e+05     1.736606e-19
 1.720000e+05     1.756605e-19
 1.740000e+05     1.766866e-19
 1.760000e+05     1.778380e-19
 1.780000e+05     1.792988e-19
 1.800000e+05     1.806093e-19
 1.820000e+05     1.818547e-19
 1.840000e+05     1.828391e-19
 1.860000e+05     1.834608e-19
 1.880000e+05     1.849553e-19
 1.900000e+05     1.861395e-19
 1.920000e+05     1.875006e-19
 1.940000e+05     1.884157e-19
 1.960000e+05     1.892270e-19
 1.980000e+05     1.899101e-19
 2.000000e+05     1.906897e-19
 2.020000e+05     1.915530e-19
 2.040000e+05     1.925009e-19
 2.060000e+05     1.933202e-19
 2.080000e+05     1.942356e-19
 2.100000e+05     1.951437e-19
 2.120000e+05     1.960918e-19
 2.140000e+05     1.971897e-19
 2.160000e+05     1.983483e-19
 2.180000e+05     1.995457e-19
 2.200000e+05     2.007661e-19
 2.220000e+05     2.017795e-19
 2.240000e+05     2.030111e-19
 2.260000e+05     2.044872e-19
 2.280000e+05     2.060194e-19
 2.300000e+05     2.076039e-19
 2.320000e+05     2.092424e-19
 2.340000e+05     2.108712e-19
 2.360000e+05     2.126725e-19
 2.380000e+05     2.145023e-19
 2.400000e+05     2.163865e-19
 2.420000e+05     2.183948e-19
 2.440000e+05     2.204508e-19
 2.460000e+05     2.225191e-19
 2.480000e+05     2.246493e-19
 2.500000e+05     2.269059e-19
 2.520000e+05     2.292814e-19
 2.540000e+05     2.316854e-19
 2.560000e+05     2.340626e-19
 2.580000e+05     2.365621e-19
 2.600000e+05     2.393749e-19
 2.620000e+05     2.421453e-19
 2.640000e+05     2.447741e-19
 2.660000e+05     2.474942e-19
 2.680000e+05     2.502606e-19
 2.700000e+05     2.530366e-19
 2.720000e+05     2.558351e-19
 2.740000e+05     2.586864e-19
 2.760000e+05     2.616061e-19
 2.780000e+05     2.645825e-19
 2.800000e+05     2.676301e-19
 2.820000e+05     2.707644e-19
 2.840000e+05     2.739486e-19
 2.860000e+05     2.771430e-19
 2.880000e+05     2.803617e-19
 2.900000e+05     2.835968e-19
 2.920000e+05     2.869010e-19
 2.940000e+05     2.902922e-19
 2.960000e+05     2.937400e-19
 2.980000e+05     2.972389e-19
 3.000000e+05     3.007874e-19
 3.020000e+05     3.044112e-19
 3.040000e+05     3.081157e-19
 3.060000e+05     3.118619e-19
 3.080000e+05     3.156276e-19
 3.100000e+05     3.195130e-19
 3.120000e+05     3.234812e-19
 3.140000e+05     3.275151e-19
 3.160000e+05     3.316268e-19
 3.180000e+05     3.358234e-19
 3.200000e+05     3.401058e-19
 3.220000e+05     3.444808e-19
 3.240000e+05     3.489371e-19
 3.260000e+05     3.534779e-19
 3.280000e+05     3.581098e-19
 3.300000e+05     3.628423e-19
 3.320000e+05     3.677072e-19
 3.340000e+05     3.730189e-19
 3.360000e+05     3.790997e-19
 3.380000e+05     3.846376e-19
 3.400000e+05     3.897367e-19
 3.420000e+05     3.948498e-19
 3.440000e+05     3.999748e-19
 3.460000e+05     4.053282e-19
 3.480000e+05     4.117557e-19
 3.500000e+05     4.188138e-19
 3.520000e+05     4.247318e-19
 3.540000e+05     4.303251e-19
 3.560000e+05     4.359094e-19
 3.580000e+05     4.415486e-19
 3.600000e+05     4.473128e-19
 3.620000e+05     4.531144e-19
 3.640000e+05     4.590607e-19
 3.660000e+05     4.650204e-19
 3.680000e+05     4.709174e-19
 3.700000e+05     4.770734e-19
 3.720000e+05     4.832637e-19
 3.740000e+05     4.894884e-19
 3.760000e+05     4.958286e-19
 3.780000e+05     5.022821e-19
 3.800000e+05     5.085741e-19
 3.820000e+05     5.151457e-19
 3.840000e+05     5.217162e-19
 3.860000e+05     5.283272e-19
 3.880000e+05     5.350611e-19
 3.900000e+05     5.418769e-19
 3.920000e+05     5.487669e-19
 4.320000e+05     6.992656e-19
 4.760000e+05     8.926979e-19
 5.250000e+05     1.138891e-18
 5.790000e+05     1.440759e-18
 6.390000e+05     1.804927e-18
 7.040000e+05     2.226543e-18
 7.760000e+05     2.737109e-18
 8.560000e+05     3.372463e-18
 9.430000e+05     4.136436e-18
 1.040000e+06     5.045198e-18
 1.147000e+06     6.057389e-18
 1.264000e+06     7.096302e-18
 1.394000e+06     8.084064e-18
 1.537000e+06     8.911443e-18
 1.694000e+06     9.493457e-18
 1.868000e+06     9.776012e-18
 2.059000e+06     9.737422e-18
 2.270000e+06     9.395305e-18
 2.503000e+06     8.797281e-18
 2.760000e+06     8.011618e-18
 3.043000e+06     7.114613e-18
 3.354000e+06     6.178143e-18
 3.698000e+06     5.253798e-18
