## EBL from Khaire & Srianand 2018; Q16 Model with alpha=-1.6 
## Column1:wavelength (Angstrom);  Column2:EBL specific intensity J_nu (erg/s/cm^2/Hz/Sr)
## ===========================================================================================
 1.000000e-08     5.717124e-37
 1.122019e-08     8.315117e-37
 1.258925e-08     1.192245e-36
 1.412538e-08     1.677658e-36
 1.584893e-08     2.315669e-36
 1.778279e-08     3.138719e-36
 1.995263e-08     4.184168e-36
 2.238721e-08     5.494808e-36
 2.511887e-08     7.119619e-36
 2.818382e-08     9.114577e-36
 3.162278e-08     1.154382e-35
 3.548135e-08     1.448087e-35
 3.981071e-08     1.801018e-35
 4.466837e-08     2.222905e-35
 5.011870e-08     2.724954e-35
 5.623413e-08     3.320116e-35
 6.309576e-08     4.023348e-35
 7.079456e-08     4.851947e-35
 7.943284e-08     5.825959e-35
 8.912505e-08     6.968561e-35
 1.000000e-07     8.306645e-35
 1.122019e-07     9.871335e-35
 1.258925e-07     1.169869e-34
 1.412538e-07     1.383057e-34
 1.584892e-07     1.631538e-34
 1.778279e-07     1.920937e-34
 1.995263e-07     2.257761e-34
 2.238721e-07     2.649553e-34
 2.511887e-07     3.105067e-34
 2.818382e-07     3.634433e-34
 3.162278e-07     4.249410e-34
 3.548136e-07     4.963611e-34
 3.981071e-07     5.792808e-34
 4.466837e-07     6.755309e-34
 5.011870e-07     7.872291e-34
 5.623413e-07     9.168341e-34
 6.309576e-07     1.067191e-33
 7.079456e-07     1.241598e-33
 7.943284e-07     1.443881e-33
 8.912505e-07     1.678468e-33
 1.000000e-06     1.950494e-33
 1.122019e-06     2.265909e-33
 1.258925e-06     2.631602e-33
 1.412538e-06     3.055571e-33
 1.584893e-06     3.547065e-33
 1.778279e-06     4.116819e-33
 1.995263e-06     4.777265e-33
 2.238721e-06     5.542801e-33
 2.511887e-06     6.430130e-33
 2.818382e-06     7.458585e-33
 3.162278e-06     8.650599e-33
 3.548136e-06     1.003214e-32
 3.981071e-06     1.163329e-32
 4.466837e-06     1.348896e-32
 5.011870e-06     1.563953e-32
 5.623413e-06     1.813189e-32
 6.309576e-06     2.102028e-32
 7.079456e-06     2.436757e-32
 7.943284e-06     2.824668e-32
 8.912505e-06     3.274201e-32
 1.000000e-05     3.795147e-32
 1.122019e-05     4.398845e-32
 1.258925e-05     5.098425e-32
 1.412538e-05     5.909130e-32
 1.584893e-05     6.848587e-32
 1.778279e-05     7.937251e-32
 1.995263e-05     9.198820e-32
 2.238721e-05     1.066073e-31
 2.511887e-05     1.235480e-31
 2.818382e-05     1.431790e-31
 3.162278e-05     1.659275e-31
 3.548135e-05     1.922884e-31
 3.981071e-05     2.228351e-31
 4.466837e-05     2.582327e-31
 5.011870e-05     2.992507e-31
 5.623413e-05     3.467825e-31
 6.309577e-05     4.018619e-31
 7.079457e-05     4.656864e-31
 7.943284e-05     5.396460e-31
 8.912505e-05     6.253485e-31
 1.000000e-04     7.246601e-31
 1.122018e-04     8.397398e-31
 1.258926e-04     9.729804e-31
 1.412538e-04     1.124758e-30
 1.584893e-04     1.299295e-30
 1.778279e-04     1.501145e-30
 1.995262e-04     1.735342e-30
 2.238722e-04     2.007621e-30
 2.511887e-04     2.324622e-30
 2.818383e-04     2.694118e-30
 3.162278e-04     3.125253e-30
 3.548134e-04     3.628808e-30
 3.981073e-04     4.217518e-30
 4.466837e-04     4.906440e-30
 5.011873e-04     5.713396e-30
 5.623413e-04     6.659492e-30
 6.309572e-04     7.769746e-30
 7.079460e-04     9.073836e-30
 7.943284e-04     1.060696e-29
 8.912510e-04     1.241094e-29
 1.000000e-03     1.453546e-29
 1.122018e-03     1.703958e-29
 1.258926e-03     1.999364e-29
 1.412538e-03     2.348119e-29
 1.584893e-03     2.760185e-29
 1.778279e-03     3.247432e-29
 1.995262e-03     3.824001e-29
 2.238722e-03     4.506762e-29
 2.511887e-03     5.315826e-29
 2.818383e-03     6.275212e-29
 3.162278e-03     7.413589e-29
 3.548133e-03     8.765190e-29
 3.981073e-03     1.037094e-28
 4.466837e-03     1.227973e-28
 5.011873e-03     1.455004e-28
 5.623413e-03     1.725194e-28
 6.309573e-03     2.046962e-28
 7.079460e-03     2.430467e-28
 7.943284e-03     2.888062e-28
 8.912510e-03     3.434917e-28
 1.000000e-02     4.089829e-28
 1.122019e-02     4.876273e-28
 1.258925e-02     5.823637e-28
 1.412538e-02     6.968691e-28
 1.584894e-02     8.357044e-28
 1.778279e-02     1.004474e-27
 1.995263e-02     1.209985e-27
 2.238721e-02     1.460395e-27
 2.511887e-02     1.765389e-27
 2.818385e-02     2.136354e-27
 3.162277e-02     2.586598e-27
 3.548136e-02     3.131648e-27
 3.981071e-02     3.789548e-27
 4.466837e-02     4.581366e-27
 5.011876e-02     5.531700e-27
 5.623413e-02     6.669375e-27
 6.309576e-02     8.028349e-27
 7.079456e-02     9.648651e-27
 7.943284e-02     1.157774e-26
 8.912515e-02     1.387187e-26
 1.000000e-01     1.659794e-26
 1.122019e-01     1.983744e-26
 1.258925e-01     2.360575e-26
 1.412538e-01     2.781186e-26
 1.584894e-01     3.238508e-26
 1.778279e-01     3.726883e-26
 1.995263e-01     4.241633e-26
 2.238721e-01     4.778760e-26
 2.511887e-01     5.334833e-26
 2.818385e-01     5.906903e-26
 3.162278e-01     6.492478e-26
 3.548135e-01     7.089522e-26
 3.981071e-01     7.696413e-26
 4.466837e-01     8.311948e-26
 5.011876e-01     8.935285e-26
 5.623413e-01     9.565912e-26
 6.309576e-01     1.020363e-25
 7.079456e-01     1.084847e-25
 7.943284e-01     1.150070e-25
 8.912515e-01     1.216073e-25
 1.000000e+00     1.282913e-25
 1.122019e+00     1.350653e-25
 1.258925e+00     1.419367e-25
 1.412538e+00     1.489132e-25
 1.584894e+00     1.559469e-25
 1.778279e+00     1.626414e-25
 1.995263e+00     1.694479e-25
 2.238721e+00     1.766594e-25
 2.511887e+00     1.844872e-25
 2.818385e+00     1.931138e-25
 3.162278e+00     2.027260e-25
 3.548136e+00     2.135381e-25
 3.981071e+00     2.258068e-25
 4.466837e+00     2.398463e-25
 5.011876e+00     2.560402e-25
 5.623413e+00     2.748567e-25
 6.309576e+00     2.967633e-25
 7.079456e+00     3.209607e-25
 7.943284e+00     3.491719e-25
 8.912516e+00     3.829243e-25
 1.000000e+01     4.236785e-25
 1.122019e+01     4.729361e-25
 1.258925e+01     5.322862e-25
 1.412538e+01     6.034156e-25
 1.584894e+01     6.880934e-25
 1.778279e+01     7.879363e-25
 1.995263e+01     9.043542e-25
 2.238721e+01     1.038360e-24
 2.511887e+01     1.190921e-24
 2.818385e+01     1.359225e-24
 3.162278e+01     1.539886e-24
 3.548135e+01     1.728172e-24
 3.981071e+01     1.924403e-24
 4.466837e+01     2.103880e-24
 5.011876e+01     2.290628e-24
 5.623413e+01     2.458943e-24
 6.309576e+01     2.629781e-24
 7.079456e+01     2.812258e-24
 7.943284e+01     3.005600e-24
 8.912515e+01     3.220584e-24
 1.000000e+02     3.468193e-24
 1.120000e+02     3.732740e-24
 1.250000e+02     3.998057e-24
 1.400000e+02     4.269759e-24
 1.550000e+02     4.505362e-24
 1.650000e+02     4.644170e-24
 1.750000e+02     4.766653e-24
 1.850000e+02     4.880973e-24
 1.900000e+02     4.939868e-24
 1.950000e+02     5.010242e-24
 2.000000e+02     5.109472e-24
 2.050000e+02     5.280931e-24
 2.100000e+02     5.618135e-24
 2.150000e+02     6.301671e-24
 2.180000e+02     7.024198e-24
 2.210000e+02     8.104651e-24
 2.240000e+02     9.744032e-24
 2.260000e+02     1.127105e-23
 2.270000e+02     1.220130e-23
 2.275000e+02     1.271756e-23
 2.278400e+02     1.308638e-23
 2.380000e+02     2.174162e-23
 2.500000e+02     3.043529e-23
 2.700000e+02     4.212667e-23
 2.900000e+02     5.203126e-23
 3.035000e+02     5.827177e-23
 3.037800e+02     1.190501e-22
 3.045000e+02     1.177947e-22
 3.060000e+02     1.156765e-22
 3.080000e+02     1.130687e-22
 3.100000e+02     1.106405e-22
 3.120000e+02     1.083351e-22
 3.150000e+02     1.052708e-22
 3.200000e+02     1.005330e-22
 3.250000e+02     9.659301e-23
 3.300000e+02     9.349847e-23
 3.400000e+02     8.903654e-23
 3.600000e+02     8.530808e-23
 3.800000e+02     8.676017e-23
 4.050000e+02     9.203726e-23
 4.250000e+02     9.741661e-23
 4.500000e+02     1.044965e-22
 4.650000e+02     1.088229e-22
 4.750000e+02     1.117272e-22
 4.820000e+02     1.138175e-22
 4.870000e+02     1.151902e-22
 4.910000e+02     1.164807e-22
 4.950000e+02     1.175844e-22
 4.980000e+02     1.183774e-22
 5.000000e+02     1.189313e-22
 5.020000e+02     1.196973e-22
 5.039800e+02     1.202613e-22
 5.100000e+02     1.230898e-22
 5.250000e+02     1.297159e-22
 5.600000e+02     1.435693e-22
 6.000000e+02     1.582925e-22
 6.500000e+02     1.758958e-22
 7.000000e+02     1.945286e-22
 7.500000e+02     2.157045e-22
 8.000000e+02     2.420994e-22
 8.300000e+02     2.608502e-22
 8.600000e+02     2.834521e-22
 8.800000e+02     3.004811e-22
 8.900000e+02     3.101223e-22
 8.960000e+02     3.157409e-22
 9.000000e+02     3.198621e-22
 9.030000e+02     3.228067e-22
 9.060000e+02     3.262105e-22
 9.090000e+02     3.293331e-22
 9.117800e+02     3.322521e-22
 9.300000e+02     7.153539e-22
 9.500000e+02     1.156923e-21
 9.750000e+02     2.004015e-21
 9.900000e+02     2.388593e-21
 1.005000e+03     2.873034e-21
 1.025000e+03     3.739134e-21
 1.045000e+03     4.488120e-21
 1.065000e+03     5.533587e-21
 1.085000e+03     6.621294e-21
 1.105000e+03     7.680003e-21
 1.125000e+03     8.839568e-21
 1.145000e+03     9.882512e-21
 1.165000e+03     1.108691e-20
 1.185000e+03     1.213378e-20
 1.205000e+03     1.321662e-20
 1.215600e+03     1.373443e-20
 1.215670e+03     1.453443e-20
 1.216000e+03     1.454977e-20
 1.218000e+03     1.463708e-20
 1.221000e+03     1.475154e-20
 1.225000e+03     1.487400e-20
 1.230000e+03     1.503972e-20
 1.240000e+03     1.551718e-20
 1.250000e+03     1.607553e-20
 1.265000e+03     1.697510e-20
 1.285000e+03     1.820831e-20
 1.305000e+03     1.954179e-20
 1.325000e+03     2.074188e-20
 1.345000e+03     2.203054e-20
 1.365000e+03     2.328857e-20
 1.385000e+03     2.455930e-20
 1.405000e+03     2.569823e-20
 1.425000e+03     2.682820e-20
 1.442000e+03     2.773203e-20
 1.455000e+03     2.843971e-20
 1.475000e+03     2.953705e-20
 1.517000e+03     3.163034e-20
 1.595000e+03     3.490998e-20
 1.672000e+03     3.784643e-20
 1.745000e+03     4.040133e-20
 1.825000e+03     4.286576e-20
 1.905000e+03     4.470289e-20
 1.984000e+03     4.630376e-20
 2.065000e+03     4.760593e-20
 2.135000e+03     4.832345e-20
 2.215000e+03     4.897313e-20
 2.295000e+03     4.958646e-20
 2.375000e+03     5.018384e-20
 2.455000e+03     5.085580e-20
 2.525000e+03     5.138875e-20
 2.605000e+03     5.217556e-20
 2.685000e+03     5.313276e-20
 2.765000e+03     5.392147e-20
 2.845000e+03     5.451745e-20
 2.950000e+03     5.551236e-20
 3.110000e+03     5.701809e-20
 3.270000e+03     5.825039e-20
 3.430000e+03     5.936707e-20
 3.590000e+03     6.038596e-20
 3.730000e+03     6.160836e-20
 3.890000e+03     6.598406e-20
 4.050000e+03     7.032543e-20
 4.210000e+03     7.687679e-20
 4.370000e+03     8.252705e-20
 4.530000e+03     8.789709e-20
 4.690000e+03     9.295565e-20
 4.850000e+03     9.691682e-20
 5.010000e+03     1.004182e-19
 5.170000e+03     1.036550e-19
 5.330000e+03     1.067054e-19
 5.490000e+03     1.095231e-19
 5.650000e+03     1.122267e-19
 5.810000e+03     1.148634e-19
 5.970000e+03     1.170149e-19
 6.130000e+03     1.191447e-19
 6.290000e+03     1.209835e-19
 6.450000e+03     1.226599e-19
 6.610000e+03     1.241676e-19
 6.770000e+03     1.256980e-19
 6.930000e+03     1.270731e-19
 7.090000e+03     1.282997e-19
 7.250000e+03     1.294312e-19
 7.410000e+03     1.305186e-19
 7.570000e+03     1.316034e-19
 7.730000e+03     1.327874e-19
 7.890000e+03     1.338641e-19
 8.050000e+03     1.348344e-19
 8.210000e+03     1.358273e-19
 8.370000e+03     1.367573e-19
 8.530000e+03     1.376272e-19
 8.690000e+03     1.385211e-19
 8.850000e+03     1.396151e-19
 9.010000e+03     1.406162e-19
 9.170000e+03     1.415423e-19
 9.330000e+03     1.427940e-19
 9.490000e+03     1.438979e-19
 9.650000e+03     1.449003e-19
 9.810000e+03     1.459108e-19
 9.970000e+03     1.469441e-19
 1.050000e+04     1.495679e-19
 1.150000e+04     1.522785e-19
 1.250000e+04     1.540143e-19
 1.350000e+04     1.550934e-19
 1.450000e+04     1.561367e-19
 1.550000e+04     1.579472e-19
 1.650000e+04     1.592421e-19
 1.750000e+04     1.588430e-19
 1.850000e+04     1.567365e-19
 1.950000e+04     1.532544e-19
 2.050000e+04     1.493458e-19
 2.150000e+04     1.451344e-19
 2.250000e+04     1.405182e-19
 2.350000e+04     1.347990e-19
 2.450000e+04     1.282059e-19
 2.550000e+04     1.226160e-19
 2.650000e+04     1.172272e-19
 2.750000e+04     1.126681e-19
 2.850000e+04     1.085016e-19
 2.950000e+04     1.045951e-19
 3.050000e+04     1.008769e-19
 3.150000e+04     9.731744e-20
 3.250000e+04     9.388294e-20
 3.350000e+04     9.057404e-20
 3.450000e+04     8.741598e-20
 3.550000e+04     8.444374e-20
 3.650000e+04     8.163796e-20
 3.750000e+04     7.899324e-20
 3.850000e+04     7.652676e-20
 3.950000e+04     7.434545e-20
 4.050000e+04     7.255435e-20
 4.150000e+04     7.049592e-20
 4.250000e+04     6.852741e-20
 4.350000e+04     6.640777e-20
 4.450000e+04     6.429099e-20
 4.550000e+04     6.226424e-20
 4.650000e+04     6.040253e-20
 4.750000e+04     5.878415e-20
 4.850000e+04     5.750091e-20
 4.950000e+04     5.660437e-20
 5.050000e+04     5.617423e-20
 5.150000e+04     5.624000e-20
 5.250000e+04     5.678375e-20
 5.350000e+04     5.778703e-20
 5.450000e+04     5.925566e-20
 5.550000e+04     6.128788e-20
 5.650000e+04     6.376820e-20
 5.750000e+04     6.677965e-20
 5.850000e+04     6.869073e-20
 5.950000e+04     7.013068e-20
 6.050000e+04     7.295778e-20
 6.150000e+04     7.895485e-20
 6.250000e+04     9.375598e-20
 6.350000e+04     1.040883e-19
 6.450000e+04     1.078843e-19
 6.550000e+04     1.112871e-19
 6.650010e+04     1.143081e-19
 6.750010e+04     1.179237e-19
 6.850010e+04     1.207715e-19
 6.950010e+04     1.252528e-19
 7.020000e+04     1.295252e-19
 7.100000e+04     1.339434e-19
 7.180000e+04     1.377971e-19
 7.260000e+04     1.417759e-19
 7.340000e+04     1.470119e-19
 7.420000e+04     1.549084e-19
 7.500000e+04     1.663187e-19
 7.580000e+04     1.809699e-19
 7.660000e+04     1.973364e-19
 7.740000e+04     2.129714e-19
 7.820000e+04     2.275449e-19
 7.900000e+04     2.405754e-19
 7.980000e+04     2.507614e-19
 8.060000e+04     2.579156e-19
 8.140000e+04     2.628608e-19
 8.220000e+04     2.665809e-19
 8.300000e+04     2.694759e-19
 8.380000e+04     2.720563e-19
 8.460000e+04     2.745531e-19
 8.540000e+04     2.774718e-19
 8.620000e+04     2.807409e-19
 8.700000e+04     2.829995e-19
 8.780000e+04     2.831711e-19
 8.860000e+04     2.815339e-19
 8.940000e+04     2.791109e-19
 9.020000e+04     2.761126e-19
 9.100000e+04     2.726920e-19
 9.180000e+04     2.692393e-19
 9.260000e+04     2.657072e-19
 9.340000e+04     2.621508e-19
 9.420000e+04     2.587323e-19
 9.500000e+04     2.556116e-19
 9.580000e+04     2.526194e-19
 9.660000e+04     2.502218e-19
 9.740000e+04     2.481073e-19
 9.820000e+04     2.453777e-19
 9.900000e+04     2.425183e-19
 9.980000e+04     2.396105e-19
 1.006000e+05     2.369107e-19
 1.020000e+05     2.326846e-19
 1.040000e+05     2.281541e-19
 1.060000e+05     2.268127e-19
 1.080000e+05     2.271363e-19
 1.100000e+05     2.290105e-19
 1.120000e+05     2.402580e-19
 1.140000e+05     2.644448e-19
 1.160000e+05     2.729117e-19
 1.180000e+05     2.796698e-19
 1.200000e+05     2.874226e-19
 1.220000e+05     2.972753e-19
 1.240000e+05     3.091230e-19
 1.260000e+05     3.245918e-19
 1.280000e+05     3.502549e-19
 1.300000e+05     3.744346e-19
 1.320000e+05     3.768002e-19
 1.340000e+05     3.872408e-19
 1.360000e+05     3.922750e-19
 1.380000e+05     3.995097e-19
 1.400000e+05     4.037786e-19
 1.420000e+05     4.102636e-19
 1.440000e+05     4.157732e-19
 1.460000e+05     4.214914e-19
 1.480000e+05     4.268851e-19
 1.500000e+05     4.325105e-19
 1.520000e+05     4.374311e-19
 1.540000e+05     4.424028e-19
 1.560000e+05     4.503805e-19
 1.580000e+05     4.570863e-19
 1.600000e+05     4.621016e-19
 1.620000e+05     4.678589e-19
 1.640000e+05     4.755285e-19
 1.660000e+05     4.866861e-19
 1.680000e+05     4.965131e-19
 1.700000e+05     5.083839e-19
 1.720000e+05     5.220679e-19
 1.740000e+05     5.332827e-19
 1.760000e+05     5.412271e-19
 1.780000e+05     5.496484e-19
 1.800000e+05     5.567146e-19
 1.820000e+05     5.642362e-19
 1.840000e+05     5.712179e-19
 1.860000e+05     5.797357e-19
 1.880000e+05     5.934634e-19
 1.900000e+05     6.044125e-19
 1.920000e+05     6.147108e-19
 1.940000e+05     6.265127e-19
 1.960000e+05     6.397726e-19
 1.980000e+05     6.540800e-19
 2.000000e+05     6.692533e-19
 2.020000e+05     6.851909e-19
 2.040000e+05     7.027813e-19
 2.060000e+05     7.199652e-19
 2.080000e+05     7.375307e-19
 2.100000e+05     7.574820e-19
 2.120000e+05     7.778784e-19
 2.140000e+05     7.978514e-19
 2.160000e+05     8.205557e-19
 2.180000e+05     8.448062e-19
 2.200000e+05     8.675287e-19
 2.220000e+05     8.911643e-19
 2.240000e+05     9.175866e-19
 2.260000e+05     9.433040e-19
 2.280000e+05     9.685545e-19
 2.300000e+05     9.962174e-19
 2.320000e+05     1.026120e-18
 2.340000e+05     1.056481e-18
 2.360000e+05     1.087293e-18
 2.380000e+05     1.120263e-18
 2.400000e+05     1.155556e-18
 2.420000e+05     1.191909e-18
 2.440000e+05     1.229022e-18
 2.460000e+05     1.268071e-18
 2.480000e+05     1.309483e-18
 2.500000e+05     1.352240e-18
 2.520000e+05     1.395296e-18
 2.540000e+05     1.439823e-18
 2.560000e+05     1.486617e-18
 2.580000e+05     1.535709e-18
 2.600000e+05     1.586287e-18
 2.620000e+05     1.636857e-18
 2.640000e+05     1.688028e-18
 2.660000e+05     1.740859e-18
 2.680000e+05     1.795767e-18
 2.700000e+05     1.851135e-18
 2.720000e+05     1.906267e-18
 2.740000e+05     1.961245e-18
 2.760000e+05     2.018547e-18
 2.780000e+05     2.078057e-18
 2.800000e+05     2.140282e-18
 2.820000e+05     2.204892e-18
 2.840000e+05     2.269381e-18
 2.860000e+05     2.333288e-18
 2.880000e+05     2.398169e-18
 2.900000e+05     2.464986e-18
 2.920000e+05     2.533918e-18
 2.940000e+05     2.603508e-18
 2.960000e+05     2.674799e-18
 2.980000e+05     2.746271e-18
 3.000000e+05     2.817652e-18
 3.020000e+05     2.890582e-18
 3.040000e+05     2.965477e-18
 3.060000e+05     3.040676e-18
 3.080000e+05     3.117299e-18
 3.100000e+05     3.193847e-18
 3.120000e+05     3.269854e-18
 3.140000e+05     3.348674e-18
 3.160000e+05     3.429221e-18
 3.180000e+05     3.510765e-18
 3.200000e+05     3.594950e-18
 3.220000e+05     3.679687e-18
 3.240000e+05     3.764983e-18
 3.260000e+05     3.853153e-18
 3.280000e+05     3.940460e-18
 3.300000e+05     4.027612e-18
 3.320000e+05     4.114877e-18
 3.340000e+05     4.211829e-18
 3.360000e+05     4.317134e-18
 3.380000e+05     4.415569e-18
 3.400000e+05     4.497851e-18
 3.420000e+05     4.587128e-18
 3.440000e+05     4.677885e-18
 3.460000e+05     4.758686e-18
 3.480000e+05     4.862424e-18
 3.500000e+05     4.981559e-18
 3.520000e+05     5.085393e-18
 3.540000e+05     5.181029e-18
 3.560000e+05     5.273516e-18
 3.580000e+05     5.359605e-18
 3.600000e+05     5.448359e-18
 3.620000e+05     5.542193e-18
 3.640000e+05     5.634431e-18
 3.660000e+05     5.725635e-18
 3.680000e+05     5.815667e-18
 3.700000e+05     5.908936e-18
 3.720000e+05     6.006264e-18
 3.740000e+05     6.103855e-18
 3.760000e+05     6.200845e-18
 3.780000e+05     6.298035e-18
 3.800000e+05     6.398108e-18
 3.820000e+05     6.500292e-18
 3.840000e+05     6.602820e-18
 3.860000e+05     6.706117e-18
 3.880000e+05     6.811282e-18
 3.900000e+05     6.918574e-18
 3.920000e+05     7.026701e-18
 4.320000e+05     9.333278e-18
 4.760000e+05     1.204095e-17
 5.250000e+05     1.501696e-17
 5.790000e+05     1.803951e-17
 6.390000e+05     2.094864e-17
 7.040000e+05     2.340291e-17
 7.760000e+05     2.520787e-17
 8.560000e+05     2.621366e-17
 9.430000e+05     2.637449e-17
 1.040000e+06     2.576542e-17
 1.147000e+06     2.452554e-17
 1.264000e+06     2.285018e-17
 1.394000e+06     2.090287e-17
 1.537000e+06     1.886777e-17
 1.694000e+06     1.686911e-17
 1.868000e+06     1.497433e-17
 2.059000e+06     1.324201e-17
 2.270000e+06     1.167272e-17
 2.503000e+06     1.025838e-17
 2.760000e+06     8.980198e-18
 3.043000e+06     7.818422e-18
 3.354000e+06     6.757005e-18
 3.698000e+06     5.779638e-18
