## EBL from Khaire & Srianand 2018; Q16 Model with alpha=-1.6 
## Column1:wavelength (Angstrom);  Column2:EBL specific intensity J_nu (erg/s/cm^2/Hz/Sr)
## ===========================================================================================
 1.000000e-08     8.384777e-38
 1.122019e-08     1.218724e-37
 1.258925e-08     1.742889e-37
 1.412538e-08     2.443095e-37
 1.584893e-08     3.357785e-37
 1.778279e-08     4.531817e-37
 1.995263e-08     6.016831e-37
 2.238721e-08     7.871914e-37
 2.511887e-08     1.016464e-36
 2.818382e-08     1.297221e-36
 3.162278e-08     1.638310e-36
 3.548135e-08     2.049877e-36
 3.981071e-08     2.543585e-36
 4.466837e-08     3.132874e-36
 5.011870e-08     3.833231e-36
 5.623413e-08     4.662567e-36
 6.309576e-08     5.641568e-36
 7.079456e-08     6.794165e-36
 7.943284e-08     8.148096e-36
 8.912505e-08     9.735436e-36
 1.000000e-07     1.159341e-35
 1.122019e-07     1.376509e-35
 1.258925e-07     1.630041e-35
 1.412538e-07     1.925729e-35
 1.584892e-07     2.270276e-35
 1.778279e-07     2.671466e-35
 1.995263e-07     3.138311e-35
 2.238721e-07     3.681252e-35
 2.511887e-07     4.312403e-35
 2.818382e-07     5.045791e-35
 3.162278e-07     5.897692e-35
 3.548136e-07     6.886952e-35
 3.981071e-07     8.035404e-35
 4.466837e-07     9.368389e-35
 5.011870e-07     1.091522e-34
 5.623413e-07     1.270994e-34
 6.309576e-07     1.479193e-34
 7.079456e-07     1.720684e-34
 7.943284e-07     2.000763e-34
 8.912505e-07     2.325558e-34
 1.000000e-06     2.702181e-34
 1.122019e-06     3.138867e-34
 1.258925e-06     3.645150e-34
 1.412538e-06     4.232101e-34
 1.584893e-06     4.912525e-34
 1.778279e-06     5.701279e-34
 1.995263e-06     6.615575e-34
 2.238721e-06     7.675339e-34
 2.511887e-06     8.903696e-34
 2.818382e-06     1.032741e-33
 3.162278e-06     1.197752e-33
 3.548136e-06     1.388998e-33
 3.981071e-06     1.610644e-33
 4.466837e-06     1.867520e-33
 5.011870e-06     2.165220e-33
 5.623413e-06     2.510229e-33
 6.309576e-06     2.910058e-33
 7.079456e-06     3.373408e-33
 7.943284e-06     3.910377e-33
 8.912505e-06     4.532642e-33
 1.000000e-05     5.253762e-33
 1.122019e-05     6.089427e-33
 1.258925e-05     7.057814e-33
 1.412538e-05     8.180024e-33
 1.584893e-05     9.480454e-33
 1.778279e-05     1.098742e-32
 1.995263e-05     1.273373e-32
 2.238721e-05     1.475735e-32
 2.511887e-05     1.710234e-32
 2.818382e-05     1.981971e-32
 3.162278e-05     2.296862e-32
 3.548135e-05     2.661757e-32
 3.981071e-05     3.084594e-32
 4.466837e-05     3.574576e-32
 5.011870e-05     4.142358e-32
 5.623413e-05     4.800304e-32
 6.309577e-05     5.562726e-32
 7.079457e-05     6.446201e-32
 7.943284e-05     7.469967e-32
 8.912505e-05     8.656280e-32
 1.000000e-04     1.003097e-31
 1.122018e-04     1.162393e-31
 1.258926e-04     1.346730e-31
 1.412538e-04     1.556072e-31
 1.584893e-04     1.797070e-31
 1.778279e-04     2.076188e-31
 1.995262e-04     2.400381e-31
 2.238722e-04     2.777553e-31
 2.511887e-04     3.216883e-31
 2.818383e-04     3.729154e-31
 3.162278e-04     4.327069e-31
 3.548134e-04     5.025618e-31
 3.981073e-04     5.842525e-31
 4.466837e-04     6.798747e-31
 5.011873e-04     7.919102e-31
 5.623413e-04     9.232985e-31
 6.309572e-04     1.077525e-30
 7.079460e-04     1.258723e-30
 7.943284e-04     1.471799e-30
 8.912510e-04     1.722582e-30
 1.000000e-03     2.017997e-30
 1.122018e-03     2.366280e-30
 1.258926e-03     2.777236e-30
 1.412538e-03     3.262522e-30
 1.584893e-03     3.836032e-30
 1.778279e-03     4.514322e-30
 1.995262e-03     5.317126e-30
 2.238722e-03     6.267982e-30
 2.511887e-03     7.394959e-30
 2.818383e-03     8.731576e-30
 3.162278e-03     1.031786e-29
 3.548133e-03     1.220159e-29
 3.981073e-03     1.443991e-29
 4.466837e-03     1.710108e-29
 5.011873e-03     2.026679e-29
 5.623413e-03     2.403493e-29
 6.309573e-03     2.852318e-29
 7.079460e-03     3.387377e-29
 7.943284e-03     4.025992e-29
 8.912510e-03     4.789483e-29
 1.000000e-02     5.704342e-29
 1.122019e-02     6.803710e-29
 1.258925e-02     8.129121e-29
 1.412538e-02     9.732538e-29
 1.584894e-02     1.167831e-28
 1.778279e-02     1.404534e-28
 1.995263e-02     1.692916e-28
 2.238721e-02     2.044389e-28
 2.511887e-02     2.472461e-28
 2.818385e-02     2.992972e-28
 3.162277e-02     3.624398e-28
 3.548136e-02     4.388270e-28
 3.981071e-02     5.309602e-28
 4.466837e-02     6.417601e-28
 5.011876e-02     7.746385e-28
 5.623413e-02     9.335982e-28
 6.309576e-02     1.123358e-27
 7.079456e-02     1.349488e-27
 7.943284e-02     1.618594e-27
 8.912515e-02     1.938516e-27
 1.000000e-01     2.318580e-27
 1.122019e-01     2.770271e-27
 1.258925e-01     3.292752e-27
 1.412538e-01     3.870227e-27
 1.584894e-01     4.492762e-27
 1.778279e-01     5.153264e-27
 1.995263e-01     5.846083e-27
 2.238721e-01     6.566384e-27
 2.511887e-01     7.309994e-27
 2.818385e-01     8.073297e-27
 3.162278e-01     8.853243e-27
 3.548135e-01     9.647370e-27
 3.981071e-01     1.045374e-26
 4.466837e-01     1.127095e-26
 5.011876e-01     1.209808e-26
 5.623413e-01     1.293459e-26
 6.309576e-01     1.378026e-26
 7.079456e-01     1.463532e-26
 7.943284e-01     1.550019e-26
 8.912515e-01     1.637550e-26
 1.000000e+00     1.726193e-26
 1.122019e+00     1.816034e-26
 1.258925e+00     1.907157e-26
 1.412538e+00     1.999644e-26
 1.584894e+00     2.092399e-26
 1.778279e+00     2.179562e-26
 1.995263e+00     2.269058e-26
 2.238721e+00     2.364846e-26
 2.511887e+00     2.469340e-26
 2.818385e+00     2.584515e-26
 3.162278e+00     2.712387e-26
 3.548136e+00     2.855209e-26
 3.981071e+00     3.015521e-26
 4.466837e+00     3.196133e-26
 5.011876e+00     3.399987e-26
 5.623413e+00     3.629930e-26
 6.309576e+00     3.886073e-26
 7.079456e+00     4.146346e-26
 7.943284e+00     4.430479e-26
 8.912516e+00     4.736929e-26
 1.000000e+01     5.069321e-26
 1.122019e+01     5.381970e-26
 1.258925e+01     5.770290e-26
 1.412538e+01     6.085077e-26
 1.584894e+01     6.431671e-26
 1.778279e+01     6.615194e-26
 1.995263e+01     6.741546e-26
 2.238721e+01     6.740324e-26
 2.511887e+01     6.613112e-26
 2.818385e+01     6.343733e-26
 3.162278e+01     5.972710e-26
 3.548135e+01     5.510830e-26
 3.981071e+01     5.000237e-26
 4.466837e+01     4.475058e-26
 5.011876e+01     3.964556e-26
 5.623413e+01     3.490278e-26
 6.309576e+01     3.064723e-26
 7.079456e+01     2.695774e-26
 7.943284e+01     2.379747e-26
 8.912515e+01     2.111797e-26
 1.000000e+02     1.886662e-26
 1.120000e+02     1.700558e-26
 1.250000e+02     1.550039e-26
 1.400000e+02     1.421401e-26
 1.550000e+02     1.325549e-26
 1.650000e+02     1.275212e-26
 1.750000e+02     1.233338e-26
 1.850000e+02     1.200598e-26
 1.900000e+02     1.191351e-26
 1.950000e+02     1.193914e-26
 2.000000e+02     1.220448e-26
 2.050000e+02     1.299265e-26
 2.100000e+02     1.487761e-26
 2.150000e+02     1.896216e-26
 2.180000e+02     2.328752e-26
 2.210000e+02     2.985604e-26
 2.240000e+02     3.972724e-26
 2.260000e+02     4.880842e-26
 2.270000e+02     5.430370e-26
 2.275000e+02     5.732342e-26
 2.278400e+02     5.948906e-26
 2.380000e+02     1.375685e-23
 2.500000e+02     3.011984e-23
 2.700000e+02     4.383222e-23
 2.900000e+02     5.163404e-23
 3.035000e+02     5.561342e-23
 3.037800e+02     7.240334e-23
 3.045000e+02     7.140214e-23
 3.060000e+02     6.985432e-23
 3.080000e+02     6.803443e-23
 3.100000e+02     6.660018e-23
 3.120000e+02     6.548819e-23
 3.150000e+02     6.431507e-23
 3.200000e+02     6.322410e-23
 3.250000e+02     6.301465e-23
 3.300000e+02     6.335002e-23
 3.400000e+02     6.491854e-23
 3.600000e+02     6.928606e-23
 3.800000e+02     7.396936e-23
 4.050000e+02     7.981613e-23
 4.250000e+02     8.450107e-23
 4.500000e+02     9.031702e-23
 4.650000e+02     9.378027e-23
 4.750000e+02     9.613875e-23
 4.820000e+02     9.773844e-23
 4.870000e+02     9.893961e-23
 4.910000e+02     9.987063e-23
 4.950000e+02     1.007849e-22
 4.980000e+02     1.014388e-22
 5.000000e+02     1.019236e-22
 5.020000e+02     1.023671e-22
 5.039800e+02     1.028535e-22
 5.100000e+02     1.099012e-22
 5.250000e+02     1.212949e-22
 5.600000e+02     1.361571e-22
 6.000000e+02     1.487699e-22
 6.500000e+02     1.636638e-22
 7.000000e+02     1.804556e-22
 7.500000e+02     2.013117e-22
 8.000000e+02     2.283404e-22
 8.300000e+02     2.485540e-22
 8.600000e+02     2.728770e-22
 8.800000e+02     2.914118e-22
 8.900000e+02     3.017072e-22
 8.960000e+02     3.079587e-22
 9.000000e+02     3.124548e-22
 9.030000e+02     3.157174e-22
 9.060000e+02     3.191291e-22
 9.090000e+02     3.226102e-22
 9.117800e+02     3.258739e-22
 9.300000e+02     7.817288e-22
 9.500000e+02     1.654678e-21
 9.750000e+02     3.068489e-21
 9.900000e+02     3.770249e-21
 1.005000e+03     4.606649e-21
 1.025000e+03     5.984637e-21
 1.045000e+03     7.130305e-21
 1.065000e+03     8.742328e-21
 1.085000e+03     1.033035e-20
 1.105000e+03     1.186666e-20
 1.125000e+03     1.348222e-20
 1.145000e+03     1.493896e-20
 1.165000e+03     1.654548e-20
 1.185000e+03     1.793255e-20
 1.205000e+03     1.928947e-20
 1.215600e+03     1.988797e-20
 1.215670e+03     2.154131e-20
 1.216000e+03     2.155567e-20
 1.218000e+03     2.164123e-20
 1.221000e+03     2.176873e-20
 1.225000e+03     2.193817e-20
 1.230000e+03     2.215005e-20
 1.240000e+03     2.270639e-20
 1.250000e+03     2.332194e-20
 1.265000e+03     2.441246e-20
 1.285000e+03     2.576382e-20
 1.305000e+03     2.734602e-20
 1.325000e+03     2.874015e-20
 1.345000e+03     2.993349e-20
 1.365000e+03     3.125089e-20
 1.385000e+03     3.275648e-20
 1.405000e+03     3.380743e-20
 1.425000e+03     3.483053e-20
 1.442000e+03     3.581119e-20
 1.455000e+03     3.655665e-20
 1.475000e+03     3.778531e-20
 1.517000e+03     3.956075e-20
 1.595000e+03     4.234456e-20
 1.672000e+03     4.467732e-20
 1.745000e+03     4.665128e-20
 1.825000e+03     4.848592e-20
 1.905000e+03     4.970857e-20
 1.984000e+03     5.070239e-20
 2.065000e+03     5.135587e-20
 2.135000e+03     5.171226e-20
 2.215000e+03     5.201832e-20
 2.295000e+03     5.213083e-20
 2.375000e+03     5.229074e-20
 2.455000e+03     5.248904e-20
 2.525000e+03     5.256909e-20
 2.605000e+03     5.276410e-20
 2.685000e+03     5.321977e-20
 2.765000e+03     5.338977e-20
 2.845000e+03     5.344028e-20
 2.950000e+03     5.366606e-20
 3.110000e+03     5.400049e-20
 3.270000e+03     5.414737e-20
 3.430000e+03     5.420628e-20
 3.590000e+03     5.405563e-20
 3.730000e+03     5.454804e-20
 3.890000e+03     5.748898e-20
 4.050000e+03     6.115345e-20
 4.210000e+03     6.587827e-20
 4.370000e+03     6.971566e-20
 4.530000e+03     7.322623e-20
 4.690000e+03     7.638570e-20
 4.850000e+03     7.843585e-20
 5.010000e+03     8.041118e-20
 5.170000e+03     8.205765e-20
 5.330000e+03     8.363267e-20
 5.490000e+03     8.506977e-20
 5.650000e+03     8.645402e-20
 5.810000e+03     8.783353e-20
 5.970000e+03     8.884760e-20
 6.130000e+03     8.985995e-20
 6.290000e+03     9.072643e-20
 6.450000e+03     9.145388e-20
 6.610000e+03     9.209122e-20
 6.770000e+03     9.277332e-20
 6.930000e+03     9.333975e-20
 7.090000e+03     9.380389e-20
 7.250000e+03     9.422541e-20
 7.410000e+03     9.463855e-20
 7.570000e+03     9.510391e-20
 7.730000e+03     9.561994e-20
 7.890000e+03     9.609104e-20
 8.050000e+03     9.649552e-20
 8.210000e+03     9.690990e-20
 8.370000e+03     9.731348e-20
 8.530000e+03     9.768817e-20
 8.690000e+03     9.809100e-20
 8.850000e+03     9.866131e-20
 9.010000e+03     9.919114e-20
 9.170000e+03     9.971959e-20
 9.330000e+03     1.003425e-19
 9.490000e+03     1.009963e-19
 9.650000e+03     1.015139e-19
 9.810000e+03     1.020668e-19
 9.970000e+03     1.026065e-19
 1.050000e+04     1.038312e-19
 1.150000e+04     1.047293e-19
 1.250000e+04     1.050005e-19
 1.350000e+04     1.050376e-19
 1.450000e+04     1.052202e-19
 1.550000e+04     1.061671e-19
 1.650000e+04     1.067167e-19
 1.750000e+04     1.061268e-19
 1.850000e+04     1.043340e-19
 1.950000e+04     1.015692e-19
 2.050000e+04     9.860076e-20
 2.150000e+04     9.549539e-20
 2.250000e+04     9.221554e-20
 2.350000e+04     8.817408e-20
 2.450000e+04     8.386638e-20
 2.550000e+04     8.047375e-20
 2.650000e+04     7.757673e-20
 2.750000e+04     7.556931e-20
 2.850000e+04     7.405500e-20
 2.950000e+04     7.286545e-20
 3.050000e+04     7.188627e-20
 3.150000e+04     7.107578e-20
 3.250000e+04     7.042385e-20
 3.350000e+04     6.995797e-20
 3.450000e+04     6.972600e-20
 3.550000e+04     6.977649e-20
 3.650000e+04     7.012066e-20
 3.750000e+04     7.080632e-20
 3.850000e+04     7.195227e-20
 3.950000e+04     7.287861e-20
 4.050000e+04     7.366641e-20
 4.150000e+04     7.449054e-20
 4.250000e+04     7.536796e-20
 4.350000e+04     7.632112e-20
 4.450000e+04     7.736878e-20
 4.550000e+04     7.851217e-20
 4.650000e+04     7.973207e-20
 4.750000e+04     8.099891e-20
 4.850000e+04     8.229834e-20
 4.950000e+04     8.365930e-20
 5.050000e+04     8.514078e-20
 5.150000e+04     8.676891e-20
 5.250000e+04     8.854860e-20
 5.350000e+04     9.090568e-20
 5.450000e+04     9.380859e-20
 5.550000e+04     9.712254e-20
 5.650000e+04     1.008443e-19
 5.750000e+04     1.054629e-19
 5.850000e+04     1.097951e-19
 5.950000e+04     1.135446e-19
 6.050000e+04     1.179161e-19
 6.150000e+04     1.244820e-19
 6.250000e+04     1.388729e-19
 6.350000e+04     1.499757e-19
 6.450000e+04     1.560025e-19
 6.550000e+04     1.606807e-19
 6.650010e+04     1.654653e-19
 6.750010e+04     1.707148e-19
 6.850010e+04     1.757464e-19
 6.950010e+04     1.813671e-19
 7.020000e+04     1.863257e-19
 7.100000e+04     1.910279e-19
 7.180000e+04     1.951677e-19
 7.260000e+04     1.998012e-19
 7.340000e+04     2.062489e-19
 7.420000e+04     2.158088e-19
 7.500000e+04     2.290884e-19
 7.580000e+04     2.453358e-19
 7.660000e+04     2.634118e-19
 7.740000e+04     2.808338e-19
 7.820000e+04     2.974189e-19
 7.900000e+04     3.128298e-19
 7.980000e+04     3.253476e-19
 8.060000e+04     3.353559e-19
 8.140000e+04     3.430794e-19
 8.220000e+04     3.494780e-19
 8.300000e+04     3.549633e-19
 8.380000e+04     3.597499e-19
 8.460000e+04     3.640645e-19
 8.540000e+04     3.682492e-19
 8.620000e+04     3.720898e-19
 8.700000e+04     3.744383e-19
 8.780000e+04     3.742882e-19
 8.860000e+04     3.719666e-19
 8.940000e+04     3.685074e-19
 9.020000e+04     3.640526e-19
 9.100000e+04     3.594404e-19
 9.180000e+04     3.550031e-19
 9.260000e+04     3.507675e-19
 9.340000e+04     3.467817e-19
 9.420000e+04     3.429678e-19
 9.500000e+04     3.393049e-19
 9.580000e+04     3.355937e-19
 9.660000e+04     3.318961e-19
 9.740000e+04     3.279006e-19
 9.820000e+04     3.230057e-19
 9.900000e+04     3.174250e-19
 9.980000e+04     3.116065e-19
 1.006000e+05     3.057965e-19
 1.020000e+05     2.967249e-19
 1.040000e+05     2.862293e-19
 1.060000e+05     2.790269e-19
 1.080000e+05     2.726037e-19
 1.100000e+05     2.674725e-19
 1.120000e+05     2.723077e-19
 1.140000e+05     2.898915e-19
 1.160000e+05     2.992413e-19
 1.180000e+05     3.058965e-19
 1.200000e+05     3.146958e-19
 1.220000e+05     3.251559e-19
 1.240000e+05     3.367098e-19
 1.260000e+05     3.498028e-19
 1.280000e+05     3.697874e-19
 1.300000e+05     3.877342e-19
 1.320000e+05     3.924544e-19
 1.340000e+05     4.005295e-19
 1.360000e+05     4.092287e-19
 1.380000e+05     4.159599e-19
 1.400000e+05     4.194318e-19
 1.420000e+05     4.210705e-19
 1.440000e+05     4.203798e-19
 1.460000e+05     4.180437e-19
 1.480000e+05     4.158836e-19
 1.500000e+05     4.146295e-19
 1.520000e+05     4.144592e-19
 1.540000e+05     4.144450e-19
 1.560000e+05     4.157790e-19
 1.580000e+05     4.158643e-19
 1.600000e+05     4.143569e-19
 1.620000e+05     4.135896e-19
 1.640000e+05     4.151590e-19
 1.660000e+05     4.200122e-19
 1.680000e+05     4.241579e-19
 1.700000e+05     4.305938e-19
 1.720000e+05     4.398094e-19
 1.740000e+05     4.461017e-19
 1.760000e+05     4.523892e-19
 1.780000e+05     4.569757e-19
 1.800000e+05     4.621705e-19
 1.820000e+05     4.665357e-19
 1.840000e+05     4.713641e-19
 1.860000e+05     4.771488e-19
 1.880000e+05     4.876867e-19
 1.900000e+05     4.949932e-19
 1.920000e+05     5.015108e-19
 1.940000e+05     5.088960e-19
 1.960000e+05     5.168220e-19
 1.980000e+05     5.259376e-19
 2.000000e+05     5.356658e-19
 2.020000e+05     5.465384e-19
 2.040000e+05     5.581910e-19
 2.060000e+05     5.698181e-19
 2.080000e+05     5.808307e-19
 2.100000e+05     5.933131e-19
 2.120000e+05     6.050181e-19
 2.140000e+05     6.160365e-19
 2.160000e+05     6.287725e-19
 2.180000e+05     6.418522e-19
 2.200000e+05     6.536936e-19
 2.220000e+05     6.665827e-19
 2.240000e+05     6.816267e-19
 2.260000e+05     6.961177e-19
 2.280000e+05     7.098953e-19
 2.300000e+05     7.250500e-19
 2.320000e+05     7.415454e-19
 2.340000e+05     7.578737e-19
 2.360000e+05     7.734748e-19
 2.380000e+05     7.902269e-19
 2.400000e+05     8.086318e-19
 2.420000e+05     8.270366e-19
 2.440000e+05     8.447494e-19
 2.460000e+05     8.634573e-19
 2.480000e+05     8.837986e-19
 2.500000e+05     9.045086e-19
 2.520000e+05     9.245426e-19
 2.540000e+05     9.446441e-19
 2.560000e+05     9.665187e-19
 2.580000e+05     9.903818e-19
 2.600000e+05     1.015107e-18
 2.620000e+05     1.038877e-18
 2.640000e+05     1.062203e-18
 2.660000e+05     1.086803e-18
 2.680000e+05     1.112863e-18
 2.700000e+05     1.139256e-18
 2.720000e+05     1.165102e-18
 2.740000e+05     1.190276e-18
 2.760000e+05     1.216449e-18
 2.780000e+05     1.244645e-18
 2.800000e+05     1.274287e-18
 2.820000e+05     1.304368e-18
 2.840000e+05     1.333367e-18
 2.860000e+05     1.361464e-18
 2.880000e+05     1.389723e-18
 2.900000e+05     1.420111e-18
 2.920000e+05     1.450596e-18
 2.940000e+05     1.481704e-18
 2.960000e+05     1.513123e-18
 2.980000e+05     1.544538e-18
 3.000000e+05     1.574981e-18
 3.020000e+05     1.606913e-18
 3.040000e+05     1.639731e-18
 3.060000e+05     1.672438e-18
 3.080000e+05     1.705893e-18
 3.100000e+05     1.739201e-18
 3.120000e+05     1.771463e-18
 3.140000e+05     1.804774e-18
 3.160000e+05     1.840072e-18
 3.180000e+05     1.875355e-18
 3.200000e+05     1.911627e-18
 3.220000e+05     1.949515e-18
 3.240000e+05     1.987340e-18
 3.260000e+05     2.025387e-18
 3.280000e+05     2.063586e-18
 3.300000e+05     2.101836e-18
 3.320000e+05     2.140730e-18
 3.340000e+05     2.188208e-18
 3.360000e+05     2.239298e-18
 3.380000e+05     2.286289e-18
 3.400000e+05     2.326907e-18
 3.420000e+05     2.366311e-18
 3.440000e+05     2.408250e-18
 3.460000e+05     2.451773e-18
 3.480000e+05     2.502645e-18
 3.500000e+05     2.557603e-18
 3.520000e+05     2.603328e-18
 3.540000e+05     2.644999e-18
 3.560000e+05     2.685134e-18
 3.580000e+05     2.722276e-18
 3.600000e+05     2.761925e-18
 3.620000e+05     2.802068e-18
 3.640000e+05     2.840159e-18
 3.660000e+05     2.877066e-18
 3.680000e+05     2.914326e-18
 3.700000e+05     2.953619e-18
 3.720000e+05     2.992544e-18
 3.740000e+05     3.031815e-18
 3.760000e+05     3.071714e-18
 3.780000e+05     3.111706e-18
 3.800000e+05     3.152004e-18
 3.820000e+05     3.193029e-18
 3.840000e+05     3.234163e-18
 3.860000e+05     3.275596e-18
 3.880000e+05     3.317960e-18
 3.900000e+05     3.360766e-18
 3.920000e+05     3.403943e-18
 4.320000e+05     4.357566e-18
 4.760000e+05     5.458723e-18
 5.250000e+05     6.703384e-18
 5.790000e+05     8.039920e-18
 6.390000e+05     9.430045e-18
 7.040000e+05     1.069165e-17
 7.760000e+05     1.176105e-17
 8.560000e+05     1.261954e-17
 9.430000e+05     1.326951e-17
 1.040000e+06     1.376744e-17
 1.147000e+06     1.414239e-17
 1.264000e+06     1.441160e-17
 1.394000e+06     1.457939e-17
 1.537000e+06     1.461405e-17
 1.694000e+06     1.447048e-17
 1.868000e+06     1.410564e-17
 2.059000e+06     1.349706e-17
 2.270000e+06     1.264471e-17
 2.503000e+06     1.158108e-17
 2.760000e+06     1.036343e-17
 3.043000e+06     9.063355e-18
 3.354000e+06     7.753326e-18
 3.698000e+06     6.486867e-18
