## EBL from Khaire & Srianand 2018; Q16 Model with alpha=-1.6 
## Column1:wavelength (Angstrom);  Column2:EBL specific intensity J_nu (erg/s/cm^2/Hz/Sr)
## ===========================================================================================
 1.000000e-08     2.505123e-39
 1.122019e-08     3.643697e-39
 1.258925e-08     5.201870e-39
 1.412538e-08     7.270674e-39
 1.584893e-08     9.961120e-39
 1.778279e-08     1.340265e-38
 1.995263e-08     1.774380e-38
 2.238721e-08     2.315414e-38
 2.511887e-08     2.982746e-38
 2.818382e-08     3.798512e-38
 3.162278e-08     4.788089e-38
 3.548135e-08     5.980581e-38
 3.981071e-08     7.409460e-38
 4.466837e-08     9.113323e-38
 5.011870e-08     1.113664e-37
 5.623413e-08     1.353088e-37
 6.309576e-08     1.635547e-37
 7.079456e-08     1.967917e-37
 7.943284e-08     2.358173e-37
 8.912505e-08     2.815532e-37
 1.000000e-07     3.350696e-37
 1.122019e-07     3.976049e-37
 1.258925e-07     4.705938e-37
 1.412538e-07     5.557023e-37
 1.584892e-07     6.548565e-37
 1.778279e-07     7.702950e-37
 1.995263e-07     9.046075e-37
 2.238721e-07     1.060796e-36
 2.511887e-07     1.242344e-36
 2.818382e-07     1.453283e-36
 3.162278e-07     1.698291e-36
 3.548136e-07     1.982787e-36
 3.981071e-07     2.313047e-36
 4.466837e-07     2.696355e-36
 5.011870e-07     3.141140e-36
 5.623413e-07     3.657185e-36
 6.309576e-07     4.255815e-36
 7.079456e-07     4.950148e-36
 7.943284e-07     5.755412e-36
 8.912505e-07     6.689220e-36
 1.000000e-06     7.772020e-36
 1.122019e-06     9.027476e-36
 1.258925e-06     1.048301e-35
 1.412538e-06     1.217043e-35
 1.584893e-06     1.412657e-35
 1.778279e-06     1.639411e-35
 1.995263e-06     1.902254e-35
 2.238721e-06     2.206915e-35
 2.511887e-06     2.560041e-35
 2.818382e-06     2.969324e-35
 3.162278e-06     3.443690e-35
 3.548136e-06     3.993473e-35
 3.981071e-06     4.630642e-35
 4.466837e-06     5.369090e-35
 5.011870e-06     6.224886e-35
 5.623413e-06     7.216682e-35
 6.309576e-06     8.366067e-35
 7.079456e-06     9.698053e-35
 7.943284e-06     1.124166e-34
 8.912505e-06     1.303047e-34
 1.000000e-05     1.510345e-34
 1.122019e-05     1.750570e-34
 1.258925e-05     2.028949e-34
 1.412538e-05     2.351546e-34
 1.584893e-05     2.725375e-34
 1.778279e-05     3.158575e-34
 1.995263e-05     3.660577e-34
 2.238721e-05     4.242296e-34
 2.511887e-05     4.916399e-34
 2.818382e-05     5.697545e-34
 3.162278e-05     6.602745e-34
 3.548135e-05     7.651686e-34
 3.981071e-05     8.867186e-34
 4.466837e-05     1.027571e-33
 5.011870e-05     1.190788e-33
 5.623413e-05     1.379923e-33
 6.309577e-05     1.599092e-33
 7.079457e-05     1.853059e-33
 7.943284e-05     2.147354e-33
 8.912505e-05     2.488376e-33
 1.000000e-04     2.883550e-33
 1.122018e-04     3.341466e-33
 1.258926e-04     3.871457e-33
 1.412538e-04     4.471368e-33
 1.584893e-04     5.162835e-33
 1.778279e-04     5.964731e-33
 1.995262e-04     6.896847e-33
 2.238722e-04     7.981747e-33
 2.511887e-04     9.245785e-33
 2.818383e-04     1.072000e-32
 3.162278e-04     1.244101e-32
 3.548134e-04     1.445205e-32
 3.981073e-04     1.680426e-32
 4.466837e-04     1.955811e-32
 5.011873e-04     2.278523e-32
 5.623413e-04     2.657047e-32
 6.309572e-04     3.101442e-32
 7.079460e-04     3.623646e-32
 7.943284e-04     4.237825e-32
 8.912510e-04     4.960810e-32
 1.000000e-03     5.812607e-32
 1.122018e-03     6.817003e-32
 1.258926e-03     8.002322e-32
 1.412538e-03     9.402242e-32
 1.584893e-03     1.105691e-31
 1.778279e-03     1.301417e-31
 1.995262e-03     1.533104e-31
 2.238722e-03     1.807556e-31
 2.511887e-03     2.132886e-31
 2.818383e-03     2.518783e-31
 3.162278e-03     2.976815e-31
 3.548133e-03     3.520799e-31
 3.981073e-03     4.167256e-31
 4.466837e-03     4.935920e-31
 5.011873e-03     5.850417e-31
 5.623413e-03     6.939058e-31
 6.309573e-03     8.235900e-31
 7.079460e-03     9.782130e-31
 7.943284e-03     1.162798e-30
 8.912510e-03     1.383538e-30
 1.000000e-02     1.648140e-30
 1.122019e-02     1.966261e-30
 1.258925e-02     2.350010e-30
 1.412538e-02     2.814537e-30
 1.584894e-02     3.378581e-30
 1.778279e-02     4.065079e-30
 1.995263e-02     4.901749e-30
 2.238721e-02     5.921616e-30
 2.511887e-02     7.163695e-30
 2.818385e-02     8.673653e-30
 3.162277e-02     1.050468e-29
 3.548136e-02     1.271873e-29
 3.981071e-02     1.538776e-29
 4.466837e-02     1.859579e-29
 5.011876e-02     2.244104e-29
 5.623413e-02     2.703882e-29
 6.309576e-02     3.252517e-29
 7.079456e-02     3.906071e-29
 7.943284e-02     4.683616e-29
 8.912515e-02     5.607790e-29
 1.000000e-01     6.705526e-29
 1.122019e-01     8.009932e-29
 1.258925e-01     9.514915e-29
 1.412538e-01     1.116450e-28
 1.584894e-01     1.293156e-28
 1.778279e-01     1.479852e-28
 1.995263e-01     1.675125e-28
 2.238721e-01     1.877720e-28
 2.511887e-01     2.086534e-28
 2.818385e-01     2.300604e-28
 3.162278e-01     2.519118e-28
 3.548135e-01     2.741426e-28
 3.981071e-01     2.967026e-28
 4.466837e-01     3.195561e-28
 5.011876e-01     3.426802e-28
 5.623413e-01     3.660630e-28
 6.309576e-01     3.896652e-28
 7.079456e-01     4.135347e-28
 7.943284e-01     4.376718e-28
 8.912515e-01     4.620835e-28
 1.000000e+00     4.867784e-28
 1.122019e+00     5.117621e-28
 1.258925e+00     5.370305e-28
 1.412538e+00     5.625656e-28
 1.584894e+00     5.880205e-28
 1.778279e+00     6.112162e-28
 1.995263e+00     6.349598e-28
 2.238721e+00     6.601095e-28
 2.511887e+00     6.869015e-28
 2.818385e+00     7.153205e-28
 3.162278e+00     7.451442e-28
 3.548136e+00     7.758656e-28
 3.981071e+00     8.065478e-28
 4.466837e+00     8.356500e-28
 5.011876e+00     8.608586e-28
 5.623413e+00     8.790254e-28
 6.309576e+00     8.858677e-28
 7.079456e+00     8.714706e-28
 7.943284e+00     8.399005e-28
 8.912516e+00     7.936154e-28
 1.000000e+01     7.308970e-28
 1.122019e+01     6.617230e-28
 1.258925e+01     5.869497e-28
 1.412538e+01     5.112145e-28
 1.584894e+01     4.395400e-28
 1.778279e+01     3.744502e-28
 1.995263e+01     3.169900e-28
 2.238721e+01     2.673336e-28
 2.511887e+01     2.250257e-28
 2.818385e+01     1.893288e-28
 3.162278e+01     1.593852e-28
 3.548135e+01     1.343532e-28
 3.981071e+01     1.134641e-28
 4.466837e+01     9.603922e-29
 5.011876e+01     8.149763e-29
 5.623413e+01     6.935674e-29
 6.309576e+01     5.921418e-29
 7.079456e+01     5.073123e-29
 7.943284e+01     4.363361e-29
 8.912515e+01     3.769527e-29
 1.000000e+02     3.271992e-29
 1.120000e+02     2.861881e-29
 1.250000e+02     2.527996e-29
 1.400000e+02     2.239192e-29
 1.550000e+02     2.021548e-29
 1.650000e+02     1.905188e-29
 1.750000e+02     1.808017e-29
 1.850000e+02     1.729882e-29
 1.900000e+02     1.705232e-29
 1.950000e+02     1.702091e-29
 2.000000e+02     1.744182e-29
 2.050000e+02     1.881686e-29
 2.100000e+02     2.216403e-29
 2.150000e+02     2.945831e-29
 2.180000e+02     3.717109e-29
 2.210000e+02     4.885619e-29
 2.240000e+02     6.631267e-29
 2.260000e+02     8.236695e-29
 2.270000e+02     9.206687e-29
 2.275000e+02     9.739516e-29
 2.278400e+02     1.012138e-28
 2.380000e+02     1.049155e-23
 2.500000e+02     1.376978e-23
 2.700000e+02     1.517013e-23
 2.900000e+02     1.625036e-23
 3.035000e+02     1.695144e-23
 3.037800e+02     1.734289e-23
 3.045000e+02     1.731278e-23
 3.060000e+02     1.728623e-23
 3.080000e+02     1.730729e-23
 3.100000e+02     1.735936e-23
 3.120000e+02     1.742871e-23
 3.150000e+02     1.755952e-23
 3.200000e+02     1.780234e-23
 3.250000e+02     1.805316e-23
 3.300000e+02     1.830474e-23
 3.400000e+02     1.879991e-23
 3.600000e+02     1.977441e-23
 3.800000e+02     2.072707e-23
 4.050000e+02     2.187817e-23
 4.250000e+02     2.277503e-23
 4.500000e+02     2.386636e-23
 4.650000e+02     2.451370e-23
 4.750000e+02     2.493985e-23
 4.820000e+02     2.523389e-23
 4.870000e+02     2.544325e-23
 4.910000e+02     2.561092e-23
 4.950000e+02     2.577725e-23
 4.980000e+02     2.590017e-23
 5.000000e+02     2.598299e-23
 5.020000e+02     2.606531e-23
 5.039800e+02     2.614912e-23
 5.100000e+02     3.171931e-23
 5.250000e+02     3.522307e-23
 5.600000e+02     3.702462e-23
 6.000000e+02     3.893685e-23
 6.500000e+02     4.168709e-23
 7.000000e+02     4.528957e-23
 7.500000e+02     5.036427e-23
 8.000000e+02     5.753619e-23
 8.300000e+02     6.321088e-23
 8.600000e+02     7.013271e-23
 8.800000e+02     7.551621e-23
 8.900000e+02     7.846065e-23
 8.960000e+02     8.031198e-23
 9.000000e+02     8.158030e-23
 9.030000e+02     8.255177e-23
 9.060000e+02     8.354001e-23
 9.090000e+02     8.454572e-23
 9.117800e+02     8.549054e-23
 9.300000e+02     8.703831e-22
 9.500000e+02     1.949817e-21
 9.750000e+02     3.970278e-21
 9.900000e+02     4.757015e-21
 1.005000e+03     5.826118e-21
 1.025000e+03     7.559996e-21
 1.045000e+03     8.946786e-21
 1.065000e+03     1.083262e-20
 1.085000e+03     1.267218e-20
 1.105000e+03     1.434698e-20
 1.125000e+03     1.612948e-20
 1.145000e+03     1.757209e-20
 1.165000e+03     1.922853e-20
 1.185000e+03     2.050690e-20
 1.205000e+03     2.180758e-20
 1.215600e+03     2.236865e-20
 1.215670e+03     2.550429e-20
 1.216000e+03     2.551656e-20
 1.218000e+03     2.558131e-20
 1.221000e+03     2.564977e-20
 1.225000e+03     2.568801e-20
 1.230000e+03     2.574115e-20
 1.240000e+03     2.627421e-20
 1.250000e+03     2.691870e-20
 1.265000e+03     2.778339e-20
 1.285000e+03     2.889702e-20
 1.305000e+03     3.040478e-20
 1.325000e+03     3.181571e-20
 1.345000e+03     3.293973e-20
 1.365000e+03     3.396475e-20
 1.385000e+03     3.508676e-20
 1.405000e+03     3.583210e-20
 1.425000e+03     3.679858e-20
 1.442000e+03     3.747101e-20
 1.455000e+03     3.810090e-20
 1.475000e+03     3.889934e-20
 1.517000e+03     4.019120e-20
 1.595000e+03     4.213062e-20
 1.672000e+03     4.354429e-20
 1.745000e+03     4.479775e-20
 1.825000e+03     4.580354e-20
 1.905000e+03     4.623527e-20
 1.984000e+03     4.654121e-20
 2.065000e+03     4.664517e-20
 2.135000e+03     4.633712e-20
 2.215000e+03     4.610523e-20
 2.295000e+03     4.570914e-20
 2.375000e+03     4.522515e-20
 2.455000e+03     4.484373e-20
 2.525000e+03     4.394699e-20
 2.605000e+03     4.367113e-20
 2.685000e+03     4.357148e-20
 2.765000e+03     4.335276e-20
 2.845000e+03     4.302723e-20
 2.950000e+03     4.277741e-20
 3.110000e+03     4.243209e-20
 3.270000e+03     4.199527e-20
 3.430000e+03     4.156131e-20
 3.590000e+03     4.114401e-20
 3.730000e+03     4.112533e-20
 3.890000e+03     4.320052e-20
 4.050000e+03     4.500205e-20
 4.210000e+03     4.805677e-20
 4.370000e+03     5.046735e-20
 4.530000e+03     5.256024e-20
 4.690000e+03     5.440031e-20
 4.850000e+03     5.561122e-20
 5.010000e+03     5.655588e-20
 5.170000e+03     5.733985e-20
 5.330000e+03     5.803547e-20
 5.490000e+03     5.863494e-20
 5.650000e+03     5.921381e-20
 5.810000e+03     5.980378e-20
 5.970000e+03     6.018839e-20
 6.130000e+03     6.061374e-20
 6.290000e+03     6.092068e-20
 6.450000e+03     6.118889e-20
 6.610000e+03     6.141594e-20
 6.770000e+03     6.167117e-20
 6.930000e+03     6.186781e-20
 7.090000e+03     6.200784e-20
 7.250000e+03     6.211201e-20
 7.410000e+03     6.222627e-20
 7.570000e+03     6.236255e-20
 7.730000e+03     6.256521e-20
 7.890000e+03     6.271569e-20
 8.050000e+03     6.281865e-20
 8.210000e+03     6.295355e-20
 8.370000e+03     6.306110e-20
 8.530000e+03     6.316674e-20
 8.690000e+03     6.331557e-20
 8.850000e+03     6.358116e-20
 9.010000e+03     6.380593e-20
 9.170000e+03     6.399791e-20
 9.330000e+03     6.436361e-20
 9.490000e+03     6.464742e-20
 9.650000e+03     6.490294e-20
 9.810000e+03     6.515120e-20
 9.970000e+03     6.543129e-20
 1.050000e+04     6.600558e-20
 1.150000e+04     6.619646e-20
 1.250000e+04     6.609223e-20
 1.350000e+04     6.586970e-20
 1.450000e+04     6.618539e-20
 1.550000e+04     6.616076e-20
 1.650000e+04     6.581691e-20
 1.750000e+04     6.530579e-20
 1.850000e+04     6.472510e-20
 1.950000e+04     6.413563e-20
 2.050000e+04     6.360136e-20
 2.150000e+04     6.318399e-20
 2.250000e+04     6.293363e-20
 2.350000e+04     6.288974e-20
 2.450000e+04     6.308245e-20
 2.550000e+04     6.353457e-20
 2.650000e+04     6.426430e-20
 2.750000e+04     6.528608e-20
 2.850000e+04     6.661160e-20
 2.950000e+04     6.799064e-20
 3.050000e+04     6.933046e-20
 3.150000e+04     7.071154e-20
 3.250000e+04     7.212901e-20
 3.350000e+04     7.364050e-20
 3.450000e+04     7.520717e-20
 3.550000e+04     7.680226e-20
 3.650000e+04     7.841464e-20
 3.750000e+04     8.005125e-20
 3.850000e+04     8.172139e-20
 3.950000e+04     8.340374e-20
 4.050000e+04     8.510594e-20
 4.150000e+04     8.683166e-20
 4.250000e+04     8.857450e-20
 4.350000e+04     9.032771e-20
 4.450000e+04     9.208593e-20
 4.550000e+04     9.384846e-20
 4.650000e+04     9.561645e-20
 4.750000e+04     9.738895e-20
 4.850000e+04     9.916376e-20
 4.950000e+04     1.009387e-19
 5.050000e+04     1.027120e-19
 5.150000e+04     1.044821e-19
 5.250000e+04     1.062495e-19
 5.350000e+04     1.079891e-19
 5.450000e+04     1.092116e-19
 5.550000e+04     1.108375e-19
 5.650000e+04     1.126747e-19
 5.750000e+04     1.150238e-19
 5.850000e+04     1.166888e-19
 5.950000e+04     1.181071e-19
 6.050000e+04     1.209523e-19
 6.150000e+04     1.295122e-19
 6.250000e+04     1.460254e-19
 6.350000e+04     1.546969e-19
 6.450000e+04     1.558760e-19
 6.550000e+04     1.566745e-19
 6.650010e+04     1.572645e-19
 6.750010e+04     1.586098e-19
 6.850010e+04     1.595977e-19
 6.950010e+04     1.617318e-19
 7.020000e+04     1.643853e-19
 7.100000e+04     1.667078e-19
 7.180000e+04     1.689191e-19
 7.260000e+04     1.724902e-19
 7.340000e+04     1.774527e-19
 7.420000e+04     1.843677e-19
 7.500000e+04     1.942282e-19
 7.580000e+04     2.074765e-19
 7.660000e+04     2.221368e-19
 7.740000e+04     2.351450e-19
 7.820000e+04     2.460732e-19
 7.900000e+04     2.554702e-19
 7.980000e+04     2.625608e-19
 8.060000e+04     2.667197e-19
 8.140000e+04     2.686535e-19
 8.220000e+04     2.689559e-19
 8.300000e+04     2.686234e-19
 8.380000e+04     2.686052e-19
 8.460000e+04     2.688449e-19
 8.540000e+04     2.694006e-19
 8.620000e+04     2.710807e-19
 8.700000e+04     2.729845e-19
 8.780000e+04     2.729103e-19
 8.860000e+04     2.704477e-19
 8.940000e+04     2.665627e-19
 9.020000e+04     2.619703e-19
 9.100000e+04     2.568431e-19
 9.180000e+04     2.515492e-19
 9.260000e+04     2.464159e-19
 9.340000e+04     2.413440e-19
 9.420000e+04     2.363832e-19
 9.500000e+04     2.315803e-19
 9.580000e+04     2.269778e-19
 9.660000e+04     2.233256e-19
 9.740000e+04     2.199892e-19
 9.820000e+04     2.159545e-19
 9.900000e+04     2.120228e-19
 9.980000e+04     2.081630e-19
 1.006000e+05     2.046271e-19
 1.020000e+05     1.988711e-19
 1.040000e+05     1.920320e-19
 1.060000e+05     1.882617e-19
 1.080000e+05     1.860099e-19
 1.100000e+05     1.857119e-19
 1.120000e+05     2.001222e-19
 1.140000e+05     2.318660e-19
 1.160000e+05     2.360095e-19
 1.180000e+05     2.360207e-19
 1.200000e+05     2.369357e-19
 1.220000e+05     2.389446e-19
 1.240000e+05     2.416334e-19
 1.260000e+05     2.473244e-19
 1.280000e+05     2.586901e-19
 1.300000e+05     2.652925e-19
 1.320000e+05     2.571763e-19
 1.340000e+05     2.546535e-19
 1.360000e+05     2.498136e-19
 1.380000e+05     2.460961e-19
 1.400000e+05     2.404726e-19
 1.420000e+05     2.370440e-19
 1.440000e+05     2.327285e-19
 1.460000e+05     2.278969e-19
 1.480000e+05     2.230023e-19
 1.500000e+05     2.184875e-19
 1.520000e+05     2.144701e-19
 1.540000e+05     2.109771e-19
 1.560000e+05     2.116314e-19
 1.580000e+05     2.108925e-19
 1.600000e+05     2.093690e-19
 1.620000e+05     2.090070e-19
 1.640000e+05     2.110982e-19
 1.660000e+05     2.167467e-19
 1.680000e+05     2.204437e-19
 1.700000e+05     2.264828e-19
 1.720000e+05     2.336249e-19
 1.740000e+05     2.386723e-19
 1.760000e+05     2.403720e-19
 1.780000e+05     2.418457e-19
 1.800000e+05     2.415037e-19
 1.820000e+05     2.414286e-19
 1.840000e+05     2.405505e-19
 1.860000e+05     2.407901e-19
 1.880000e+05     2.469839e-19
 1.900000e+05     2.490537e-19
 1.920000e+05     2.487837e-19
 1.940000e+05     2.478899e-19
 1.960000e+05     2.476354e-19
 1.980000e+05     2.471358e-19
 2.000000e+05     2.471414e-19
 2.020000e+05     2.474477e-19
 2.040000e+05     2.478135e-19
 2.060000e+05     2.483378e-19
 2.080000e+05     2.489844e-19
 2.100000e+05     2.498078e-19
 2.120000e+05     2.508469e-19
 2.140000e+05     2.520424e-19
 2.160000e+05     2.533960e-19
 2.180000e+05     2.549218e-19
 2.200000e+05     2.565870e-19
 2.220000e+05     2.583800e-19
 2.240000e+05     2.602903e-19
 2.260000e+05     2.622994e-19
 2.280000e+05     2.644004e-19
 2.300000e+05     2.665818e-19
 2.320000e+05     2.688831e-19
 2.340000e+05     2.712850e-19
 2.360000e+05     2.738138e-19
 2.380000e+05     2.764812e-19
 2.400000e+05     2.792520e-19
 2.420000e+05     2.821536e-19
 2.440000e+05     2.851859e-19
 2.460000e+05     2.883404e-19
 2.480000e+05     2.915793e-19
 2.500000e+05     2.948954e-19
 2.520000e+05     2.982775e-19
 2.540000e+05     3.017446e-19
 2.560000e+05     3.054259e-19
 2.580000e+05     3.098593e-19
 2.600000e+05     3.152302e-19
 2.620000e+05     3.199821e-19
 2.640000e+05     3.239957e-19
 2.660000e+05     3.277801e-19
 2.680000e+05     3.316647e-19
 2.700000e+05     3.359040e-19
 2.720000e+05     3.400855e-19
 2.740000e+05     3.443184e-19
 2.760000e+05     3.487962e-19
 2.780000e+05     3.534168e-19
 2.800000e+05     3.582058e-19
 2.820000e+05     3.636567e-19
 2.840000e+05     3.692768e-19
 2.860000e+05     3.743565e-19
 2.880000e+05     3.793672e-19
 2.900000e+05     3.843120e-19
 2.920000e+05     3.895644e-19
 2.940000e+05     3.949646e-19
 2.960000e+05     4.003689e-19
 2.980000e+05     4.058247e-19
 3.000000e+05     4.115226e-19
 3.020000e+05     4.173583e-19
 3.040000e+05     4.232687e-19
 3.060000e+05     4.292843e-19
 3.080000e+05     4.354945e-19
 3.100000e+05     4.418160e-19
 3.120000e+05     4.482304e-19
 3.140000e+05     4.548295e-19
 3.160000e+05     4.616331e-19
 3.180000e+05     4.685986e-19
 3.200000e+05     4.757451e-19
 3.220000e+05     4.832183e-19
 3.240000e+05     4.909837e-19
 3.260000e+05     4.990569e-19
 3.280000e+05     5.074658e-19
 3.300000e+05     5.162278e-19
 3.320000e+05     5.256233e-19
 3.340000e+05     5.390583e-19
 3.360000e+05     5.581386e-19
 3.380000e+05     5.716626e-19
 3.400000e+05     5.802149e-19
 3.420000e+05     5.887498e-19
 3.440000e+05     5.956995e-19
 3.460000e+05     6.043411e-19
 3.480000e+05     6.236898e-19
 3.500000e+05     6.474643e-19
 3.520000e+05     6.593196e-19
 3.540000e+05     6.668692e-19
 3.560000e+05     6.758087e-19
 3.580000e+05     6.816944e-19
 3.600000e+05     6.896904e-19
 3.620000e+05     6.986618e-19
 3.640000e+05     7.072922e-19
 3.660000e+05     7.152278e-19
 3.680000e+05     7.226492e-19
 3.700000e+05     7.317448e-19
 3.720000e+05     7.414699e-19
 3.740000e+05     7.509263e-19
 3.760000e+05     7.597917e-19
 3.780000e+05     7.688815e-19
 3.800000e+05     7.788020e-19
 3.820000e+05     7.887700e-19
 3.840000e+05     7.982022e-19
 3.860000e+05     8.073277e-19
 3.880000e+05     8.169685e-19
 3.900000e+05     8.272731e-19
 3.920000e+05     8.376716e-19
 4.320000e+05     1.055544e-18
 4.760000e+05     1.316323e-18
 5.250000e+05     1.620440e-18
 5.790000e+05     1.964005e-18
 6.390000e+05     2.351149e-18
 7.040000e+05     2.776112e-18
 7.760000e+05     3.437443e-18
 8.560000e+05     4.415271e-18
 9.430000e+05     5.703974e-18
 1.040000e+06     7.270354e-18
 1.147000e+06     8.977611e-18
 1.264000e+06     1.063408e-17
 1.394000e+06     1.206408e-17
 1.537000e+06     1.308341e-17
 1.694000e+06     1.358501e-17
 1.868000e+06     1.353826e-17
 2.059000e+06     1.298345e-17
 2.270000e+06     1.201443e-17
 2.503000e+06     1.075737e-17
 2.760000e+06     9.345258e-18
 3.043000e+06     7.899572e-18
 3.354000e+06     6.514888e-18
 3.698000e+06     5.247989e-18
