## EBL from Khaire & Srianand 2018; Q19 Model with alpha=-1.9 
## Column1:wavelength (Angstrom);  Column2:EBL specific intensity J_nu (erg/s/cm^2/Hz/Sr)
## ===========================================================================================
 1.000000e-08     2.665229e-37
 1.122019e-08     3.886261e-37
 1.258925e-08     5.636035e-37
 1.412538e-08     8.094367e-37
 1.584893e-08     1.147720e-36
 1.778279e-08     1.603810e-36
 1.995263e-08     2.207026e-36
 2.238721e-08     2.990978e-36
 2.511887e-08     3.994107e-36
 2.818382e-08     5.260310e-36
 3.162278e-08     6.839800e-36
 3.548135e-08     8.789997e-36
 3.981071e-08     1.117668e-35
 4.466837e-08     1.407533e-35
 5.011870e-08     1.757257e-35
 5.623413e-08     2.176814e-35
 6.309576e-08     2.677681e-35
 7.079456e-08     3.273091e-35
 7.943284e-08     3.978344e-35
 8.912505e-08     4.811095e-35
 1.000000e-07     5.791798e-35
 1.122019e-07     6.944099e-35
 1.258925e-07     8.295371e-35
 1.412538e-07     9.877373e-35
 1.584892e-07     1.172682e-34
 1.778279e-07     1.388637e-34
 1.995263e-07     1.640534e-34
 2.238721e-07     1.934093e-34
 2.511887e-07     2.275949e-34
 2.818382e-07     2.673783e-34
 3.162278e-07     3.136509e-34
 3.548136e-07     3.674447e-34
 3.981071e-07     4.299558e-34
 4.466837e-07     5.025720e-34
 5.011870e-07     5.868994e-34
 5.623413e-07     6.848022e-34
 6.309576e-07     7.984385e-34
 7.079456e-07     9.303088e-34
 7.943284e-07     1.083315e-33
 8.912505e-07     1.260814e-33
 1.000000e-06     1.466702e-33
 1.122019e-06     1.705491e-33
 1.258925e-06     1.982406e-33
 1.412538e-06     2.303514e-33
 1.584893e-06     2.675830e-33
 1.778279e-06     3.107493e-33
 1.995263e-06     3.607937e-33
 2.238721e-06     4.188079e-33
 2.511887e-06     4.860591e-33
 2.818382e-06     5.640137e-33
 3.162278e-06     6.543730e-33
 3.548136e-06     7.591070e-33
 3.981071e-06     8.804972e-33
 4.466837e-06     1.021192e-32
 5.011870e-06     1.184254e-32
 5.623413e-06     1.373240e-32
 6.309576e-06     1.592264e-32
 7.079456e-06     1.846095e-32
 7.943284e-06     2.140265e-32
 8.912505e-06     2.481175e-32
 1.000000e-05     2.876253e-32
 1.122019e-05     3.334097e-32
 1.258925e-05     3.864669e-32
 1.412538e-05     4.479532e-32
 1.584893e-05     5.192055e-32
 1.778279e-05     6.017755e-32
 1.995263e-05     6.974605e-32
 2.238721e-05     8.083417e-32
 2.511887e-05     9.368337e-32
 2.818382e-05     1.085731e-31
 3.162278e-05     1.258276e-31
 3.548135e-05     1.458223e-31
 3.981071e-05     1.689920e-31
 4.466837e-05     1.958413e-31
 5.011870e-05     2.269538e-31
 5.623413e-05     2.630072e-31
 6.309577e-05     3.047858e-31
 7.079457e-05     3.531978e-31
 7.943284e-05     4.092977e-31
 8.912505e-05     4.743050e-31
 1.000000e-04     5.496353e-31
 1.122018e-04     6.369263e-31
 1.258926e-04     7.380702e-31
 1.412538e-04     8.548149e-31
 1.584893e-04     9.894256e-31
 1.778279e-04     1.144657e-30
 1.995262e-04     1.323824e-30
 2.238722e-04     1.530931e-30
 2.511887e-04     1.770768e-30
 2.818383e-04     2.049037e-30
 3.162278e-04     2.372468e-30
 3.548134e-04     2.748977e-30
 3.981073e-04     3.187881e-30
 4.466837e-04     3.700136e-30
 5.011873e-04     4.298663e-30
 5.623413e-04     4.998714e-30
 6.309572e-04     5.818319e-30
 7.079460e-04     6.778820e-30
 7.943284e-04     7.905481e-30
 8.912510e-04     9.228266e-30
 1.000000e-03     1.078273e-29
 1.122018e-03     1.261105e-29
 1.258926e-03     1.476340e-29
 1.412538e-03     1.729931e-29
 1.584893e-03     2.028963e-29
 1.778279e-03     2.381871e-29
 1.995262e-03     2.798691e-29
 2.238722e-03     3.291380e-29
 2.511887e-03     3.874179e-29
 2.818383e-03     4.564077e-29
 3.162278e-03     5.381334e-29
 3.548133e-03     6.350120e-29
 3.981073e-03     7.499301e-29
 4.466837e-03     8.863316e-29
 5.011873e-03     1.048334e-28
 5.623413e-03     1.240858e-28
 6.309573e-03     1.469794e-28
 7.079460e-03     1.742203e-28
 7.943284e-03     2.066575e-28
 8.912510e-03     2.453167e-28
 1.000000e-02     2.914440e-28
 1.122019e-02     3.465629e-28
 1.258925e-02     4.125457e-28
 1.412538e-02     4.917069e-28
 1.584894e-02     5.869052e-28
 1.778279e-02     7.016705e-28
 1.995263e-02     8.403454e-28
 2.238721e-02     1.008228e-27
 2.511887e-02     1.211748e-27
 2.818385e-02     1.458633e-27
 3.162277e-02     1.758104e-27
 3.548136e-02     2.121111e-27
 3.981071e-02     2.560558e-27
 4.466837e-02     3.091640e-27
 5.011876e-02     3.732180e-27
 5.623413e-02     4.503089e-27
 6.309576e-02     5.428944e-27
 7.079456e-02     6.538616e-27
 7.943284e-02     7.866177e-27
 8.912515e-02     9.451844e-27
 1.000000e-01     1.134322e-26
 1.122019e-01     1.359696e-26
 1.258925e-01     1.626964e-26
 1.412538e-01     1.939419e-26
 1.584894e-01     2.298596e-26
 1.778279e-01     2.704117e-26
 1.995263e-01     3.153815e-26
 2.238721e-01     3.644108e-26
 2.511887e-01     4.170579e-26
 2.818385e-01     4.728486e-26
 3.162278e-01     5.313175e-26
 3.548135e-01     5.920368e-26
 3.981071e-01     6.546268e-26
 4.466837e-01     7.187633e-26
 5.011876e-01     7.841745e-26
 5.623413e-01     8.506398e-26
 6.309576e-01     9.179866e-26
 7.079456e-01     9.860822e-26
 7.943284e-01     1.054834e-25
 8.912515e-01     1.124178e-25
 1.000000e+00     1.194078e-25
 1.122019e+00     1.264522e-25
 1.258925e+00     1.335514e-25
 1.412538e+00     1.407073e-25
 1.584894e+00     1.479226e-25
 1.778279e+00     1.552005e-25
 1.995263e+00     1.625448e-25
 2.238721e+00     1.699591e-25
 2.511887e+00     1.774475e-25
 2.818385e+00     1.850136e-25
 3.162278e+00     1.926612e-25
 3.548136e+00     2.003947e-25
 3.981071e+00     2.082189e-25
 4.466837e+00     2.161405e-25
 5.011876e+00     2.241680e-25
 5.623413e+00     2.323134e-25
 6.309576e+00     2.405855e-25
 7.079456e+00     2.487123e-25
 7.943284e+00     2.566097e-25
 8.912516e+00     2.643742e-25
 1.000000e+01     2.724425e-25
 1.122019e+01     2.814418e-25
 1.258925e+01     2.921981e-25
 1.412538e+01     3.056901e-25
 1.584894e+01     3.230115e-25
 1.778279e+01     3.453595e-25
 1.995263e+01     3.740452e-25
 2.238721e+01     4.105122e-25
 2.511887e+01     4.563500e-25
 2.818385e+01     5.132762e-25
 3.162278e+01     5.830759e-25
 3.548135e+01     6.674859e-25
 3.981071e+01     7.680099e-25
 4.466837e+01     8.857072e-25
 5.011876e+01     1.020893e-24
 5.623413e+01     1.172294e-24
 6.309576e+01     1.340630e-24
 7.079456e+01     1.529228e-24
 7.943284e+01     1.738369e-24
 8.912515e+01     1.981491e-24
 1.000000e+02     2.270473e-24
 1.120000e+02     2.596217e-24
 1.250000e+02     2.970028e-24
 1.400000e+02     3.411448e-24
 1.550000e+02     3.855674e-24
 1.650000e+02     4.156270e-24
 1.750000e+02     4.445751e-24
 1.850000e+02     4.728600e-24
 1.900000e+02     4.870146e-24
 1.950000e+02     5.012365e-24
 2.000000e+02     5.152338e-24
 2.050000e+02     5.296296e-24
 2.100000e+02     5.458339e-24
 2.150000e+02     5.664860e-24
 2.180000e+02     5.827741e-24
 2.210000e+02     6.035350e-24
 2.240000e+02     6.316651e-24
 2.260000e+02     6.561467e-24
 2.270000e+02     6.701108e-24
 2.275000e+02     6.776422e-24
 2.278400e+02     6.836839e-24
 2.380000e+02     7.958084e-24
 2.500000e+02     9.225452e-24
 2.700000e+02     1.171620e-23
 2.900000e+02     1.420999e-23
 3.035000e+02     1.606635e-23
 3.037800e+02     1.951166e-23
 3.045000e+02     1.962922e-23
 3.060000e+02     1.988069e-23
 3.080000e+02     2.020489e-23
 3.100000e+02     2.052124e-23
 3.120000e+02     2.083516e-23
 3.150000e+02     2.141985e-23
 3.200000e+02     2.221452e-23
 3.250000e+02     2.303045e-23
 3.300000e+02     2.384494e-23
 3.400000e+02     2.548154e-23
 3.600000e+02     2.878250e-23
 3.800000e+02     3.203658e-23
 4.050000e+02     3.614569e-23
 4.250000e+02     3.959662e-23
 4.500000e+02     4.356320e-23
 4.650000e+02     4.589192e-23
 4.750000e+02     4.744668e-23
 4.820000e+02     4.868013e-23
 4.870000e+02     4.943910e-23
 4.910000e+02     5.005113e-23
 4.950000e+02     5.066759e-23
 4.980000e+02     5.113408e-23
 5.000000e+02     5.144319e-23
 5.020000e+02     5.174890e-23
 5.039800e+02     5.204731e-23
 5.100000e+02     5.307814e-23
 5.250000e+02     5.559433e-23
 5.600000e+02     6.151338e-23
 6.000000e+02     6.825924e-23
 6.500000e+02     7.772193e-23
 7.000000e+02     8.835516e-23
 7.500000e+02     9.950339e-23
 8.000000e+02     1.118598e-22
 8.300000e+02     1.198992e-22
 8.600000e+02     1.280971e-22
 8.800000e+02     1.342366e-22
 8.900000e+02     1.373164e-22
 8.960000e+02     1.391892e-22
 9.000000e+02     1.404482e-22
 9.030000e+02     1.413978e-22
 9.060000e+02     1.423524e-22
 9.090000e+02     1.433119e-22
 9.117800e+02     1.446089e-22
 9.300000e+02     2.120822e-22
 9.500000e+02     2.320932e-22
 9.750000e+02     2.779404e-22
 9.900000e+02     3.277067e-22
 1.005000e+03     3.671307e-22
 1.025000e+03     4.343583e-22
 1.045000e+03     5.066524e-22
 1.065000e+03     5.846245e-22
 1.085000e+03     6.787619e-22
 1.105000e+03     7.906364e-22
 1.125000e+03     9.034105e-22
 1.145000e+03     1.006305e-21
 1.165000e+03     1.135259e-21
 1.185000e+03     1.255685e-21
 1.205000e+03     1.383218e-21
 1.215600e+03     1.439890e-21
 1.215670e+03     1.465420e-21
 1.216000e+03     1.467144e-21
 1.218000e+03     1.477040e-21
 1.221000e+03     1.491445e-21
 1.225000e+03     1.509439e-21
 1.230000e+03     1.533669e-21
 1.240000e+03     1.591181e-21
 1.250000e+03     1.656920e-21
 1.265000e+03     1.776432e-21
 1.285000e+03     1.933631e-21
 1.305000e+03     2.110261e-21
 1.325000e+03     2.278586e-21
 1.345000e+03     2.455981e-21
 1.365000e+03     2.635539e-21
 1.385000e+03     2.821885e-21
 1.405000e+03     3.005657e-21
 1.425000e+03     3.193060e-21
 1.442000e+03     3.353437e-21
 1.455000e+03     3.481846e-21
 1.475000e+03     3.683011e-21
 1.517000e+03     4.094431e-21
 1.595000e+03     4.844357e-21
 1.672000e+03     5.617056e-21
 1.745000e+03     6.337155e-21
 1.825000e+03     7.138684e-21
 1.905000e+03     7.898217e-21
 1.984000e+03     8.614415e-21
 2.065000e+03     9.305116e-21
 2.135000e+03     9.841172e-21
 2.215000e+03     1.042537e-20
 2.295000e+03     1.099048e-20
 2.375000e+03     1.156501e-20
 2.455000e+03     1.213741e-20
 2.525000e+03     1.264591e-20
 2.605000e+03     1.322430e-20
 2.685000e+03     1.386740e-20
 2.765000e+03     1.448367e-20
 2.845000e+03     1.504463e-20
 2.950000e+03     1.585234e-20
 3.110000e+03     1.712660e-20
 3.270000e+03     1.837451e-20
 3.430000e+03     1.963449e-20
 3.590000e+03     2.086612e-20
 3.730000e+03     2.198504e-20
 3.890000e+03     2.385717e-20
 4.050000e+03     2.576179e-20
 4.210000e+03     2.871896e-20
 4.370000e+03     3.138623e-20
 4.530000e+03     3.431116e-20
 4.690000e+03     3.731136e-20
 4.850000e+03     4.026047e-20
 5.010000e+03     4.301231e-20
 5.170000e+03     4.585582e-20
 5.330000e+03     4.860345e-20
 5.490000e+03     5.147166e-20
 5.650000e+03     5.424805e-20
 5.810000e+03     5.715659e-20
 5.970000e+03     5.980548e-20
 6.130000e+03     6.253011e-20
 6.290000e+03     6.510236e-20
 6.450000e+03     6.759181e-20
 6.610000e+03     7.004531e-20
 6.770000e+03     7.242813e-20
 6.930000e+03     7.474940e-20
 7.090000e+03     7.697009e-20
 7.250000e+03     7.911202e-20
 7.410000e+03     8.118682e-20
 7.570000e+03     8.321774e-20
 7.730000e+03     8.522697e-20
 7.890000e+03     8.718988e-20
 8.050000e+03     8.904642e-20
 8.210000e+03     9.085939e-20
 8.370000e+03     9.263626e-20
 8.530000e+03     9.431206e-20
 8.690000e+03     9.594732e-20
 8.850000e+03     9.760514e-20
 9.010000e+03     9.918331e-20
 9.170000e+03     1.007335e-19
 9.330000e+03     1.022887e-19
 9.490000e+03     1.037848e-19
 9.650000e+03     1.053090e-19
 9.810000e+03     1.067314e-19
 9.970000e+03     1.081273e-19
 1.050000e+04     1.124907e-19
 1.150000e+04     1.189062e-19
 1.250000e+04     1.242764e-19
 1.350000e+04     1.285730e-19
 1.450000e+04     1.322662e-19
 1.550000e+04     1.356743e-19
 1.650000e+04     1.386464e-19
 1.750000e+04     1.406160e-19
 1.850000e+04     1.413739e-19
 1.950000e+04     1.410552e-19
 2.050000e+04     1.399511e-19
 2.150000e+04     1.383991e-19
 2.250000e+04     1.360482e-19
 2.350000e+04     1.334560e-19
 2.450000e+04     1.301850e-19
 2.550000e+04     1.270447e-19
 2.650000e+04     1.238211e-19
 2.750000e+04     1.207026e-19
 2.850000e+04     1.178056e-19
 2.950000e+04     1.151039e-19
 3.050000e+04     1.126195e-19
 3.150000e+04     1.103935e-19
 3.250000e+04     1.084432e-19
 3.350000e+04     1.067606e-19
 3.450000e+04     1.053345e-19
 3.550000e+04     1.041957e-19
 3.650000e+04     1.033674e-19
 3.750000e+04     1.025305e-19
 3.850000e+04     1.018501e-19
 3.950000e+04     1.013829e-19
 4.050000e+04     1.009816e-19
 4.150000e+04     1.007694e-19
 4.250000e+04     1.006863e-19
 4.350000e+04     1.006588e-19
 4.450000e+04     1.006877e-19
 4.550000e+04     1.007908e-19
 4.650000e+04     1.009352e-19
 4.750000e+04     1.011109e-19
 4.850000e+04     1.013519e-19
 4.950000e+04     1.016805e-19
 5.050000e+04     1.020866e-19
 5.150000e+04     1.025244e-19
 5.250000e+04     1.029495e-19
 5.350000e+04     1.023087e-19
 5.450000e+04     1.012581e-19
 5.550000e+04     1.006239e-19
 5.650000e+04     9.997078e-20
 5.750000e+04     9.974448e-20
 5.850000e+04     9.961781e-20
 5.950000e+04     1.002569e-19
 6.050000e+04     1.025666e-19
 6.150000e+04     1.094388e-19
 6.250000e+04     1.214995e-19
 6.350000e+04     1.297428e-19
 6.450000e+04     1.342837e-19
 6.550000e+04     1.374513e-19
 6.650010e+04     1.407391e-19
 6.750010e+04     1.455931e-19
 6.850010e+04     1.503689e-19
 6.950010e+04     1.555796e-19
 7.020000e+04     1.598277e-19
 7.100000e+04     1.648314e-19
 7.180000e+04     1.704179e-19
 7.260000e+04     1.770270e-19
 7.340000e+04     1.847101e-19
 7.420000e+04     1.939664e-19
 7.500000e+04     2.061098e-19
 7.580000e+04     2.208363e-19
 7.660000e+04     2.368461e-19
 7.740000e+04     2.518338e-19
 7.820000e+04     2.656094e-19
 7.900000e+04     2.782569e-19
 7.980000e+04     2.889803e-19
 8.060000e+04     2.973511e-19
 8.140000e+04     3.041941e-19
 8.220000e+04     3.092501e-19
 8.300000e+04     3.135023e-19
 8.380000e+04     3.176757e-19
 8.460000e+04     3.217558e-19
 8.540000e+04     3.258015e-19
 8.620000e+04     3.303400e-19
 8.700000e+04     3.345476e-19
 8.780000e+04     3.368310e-19
 8.860000e+04     3.372381e-19
 8.940000e+04     3.364053e-19
 9.020000e+04     3.347879e-19
 9.100000e+04     3.326453e-19
 9.180000e+04     3.297377e-19
 9.260000e+04     3.266202e-19
 9.340000e+04     3.235796e-19
 9.420000e+04     3.206608e-19
 9.500000e+04     3.178098e-19
 9.580000e+04     3.150417e-19
 9.660000e+04     3.129828e-19
 9.740000e+04     3.109256e-19
 9.820000e+04     3.081797e-19
 9.900000e+04     3.053729e-19
 9.980000e+04     3.026975e-19
 1.006000e+05     3.001283e-19
 1.020000e+05     2.958176e-19
 1.040000e+05     2.904436e-19
 1.060000e+05     2.877039e-19
 1.080000e+05     2.866851e-19
 1.100000e+05     2.876987e-19
 1.120000e+05     2.989287e-19
 1.140000e+05     3.207660e-19
 1.160000e+05     3.300737e-19
 1.180000e+05     3.354302e-19
 1.200000e+05     3.366800e-19
 1.220000e+05     3.419976e-19
 1.240000e+05     3.496087e-19
 1.260000e+05     3.574618e-19
 1.280000e+05     3.692263e-19
 1.300000e+05     3.777738e-19
 1.320000e+05     3.788139e-19
 1.340000e+05     3.803042e-19
 1.360000e+05     3.800386e-19
 1.380000e+05     3.807709e-19
 1.400000e+05     3.811948e-19
 1.420000e+05     3.826005e-19
 1.440000e+05     3.805691e-19
 1.460000e+05     3.807265e-19
 1.480000e+05     3.811877e-19
 1.500000e+05     3.814873e-19
 1.520000e+05     3.805879e-19
 1.540000e+05     3.820185e-19
 1.560000e+05     3.867058e-19
 1.580000e+05     3.898896e-19
 1.600000e+05     3.921277e-19
 1.620000e+05     3.961251e-19
 1.640000e+05     4.031183e-19
 1.660000e+05     4.109282e-19
 1.680000e+05     4.191014e-19
 1.700000e+05     4.288897e-19
 1.720000e+05     4.400619e-19
 1.740000e+05     4.491082e-19
 1.760000e+05     4.566608e-19
 1.780000e+05     4.633204e-19
 1.800000e+05     4.691704e-19
 1.820000e+05     4.751059e-19
 1.840000e+05     4.803438e-19
 1.860000e+05     4.863647e-19
 1.880000e+05     4.968787e-19
 1.900000e+05     5.043411e-19
 1.920000e+05     5.109419e-19
 1.940000e+05     5.169074e-19
 1.960000e+05     5.232886e-19
 1.980000e+05     5.300265e-19
 2.000000e+05     5.364709e-19
 2.020000e+05     5.437552e-19
 2.040000e+05     5.510583e-19
 2.060000e+05     5.586972e-19
 2.080000e+05     5.670406e-19
 2.100000e+05     5.753352e-19
 2.120000e+05     5.838216e-19
 2.140000e+05     5.927657e-19
 2.160000e+05     6.021104e-19
 2.180000e+05     6.119892e-19
 2.200000e+05     6.218778e-19
 2.220000e+05     6.318740e-19
 2.240000e+05     6.422633e-19
 2.260000e+05     6.531407e-19
 2.280000e+05     6.644654e-19
 2.300000e+05     6.759019e-19
 2.320000e+05     6.874248e-19
 2.340000e+05     6.994014e-19
 2.360000e+05     7.118248e-19
 2.380000e+05     7.245620e-19
 2.400000e+05     7.375433e-19
 2.420000e+05     7.506398e-19
 2.440000e+05     7.640755e-19
 2.460000e+05     7.781138e-19
 2.480000e+05     7.924820e-19
 2.500000e+05     8.071096e-19
 2.520000e+05     8.220056e-19
 2.540000e+05     8.371932e-19
 2.560000e+05     8.528598e-19
 2.580000e+05     8.693828e-19
 2.600000e+05     8.867535e-19
 2.620000e+05     9.038829e-19
 2.640000e+05     9.208076e-19
 2.660000e+05     9.380571e-19
 2.680000e+05     9.555699e-19
 2.700000e+05     9.734308e-19
 2.720000e+05     9.917381e-19
 2.740000e+05     1.010265e-18
 2.760000e+05     1.029084e-18
 2.780000e+05     1.048421e-18
 2.800000e+05     1.068265e-18
 2.820000e+05     1.088929e-18
 2.840000e+05     1.109842e-18
 2.860000e+05     1.130576e-18
 2.880000e+05     1.151599e-18
 2.900000e+05     1.172903e-18
 2.920000e+05     1.194640e-18
 2.940000e+05     1.216844e-18
 2.960000e+05     1.239390e-18
 2.980000e+05     1.262235e-18
 3.000000e+05     1.285329e-18
 3.020000e+05     1.308986e-18
 3.040000e+05     1.333081e-18
 3.060000e+05     1.357494e-18
 3.080000e+05     1.382255e-18
 3.100000e+05     1.407482e-18
 3.120000e+05     1.433072e-18
 3.140000e+05     1.459136e-18
 3.160000e+05     1.485666e-18
 3.180000e+05     1.512672e-18
 3.200000e+05     1.540089e-18
 3.220000e+05     1.568087e-18
 3.240000e+05     1.596726e-18
 3.260000e+05     1.625927e-18
 3.280000e+05     1.655891e-18
 3.300000e+05     1.686687e-18
 3.320000e+05     1.718252e-18
 3.340000e+05     1.752932e-18
 3.360000e+05     1.792105e-18
 3.380000e+05     1.827627e-18
 3.400000e+05     1.859856e-18
 3.420000e+05     1.892288e-18
 3.440000e+05     1.925246e-18
 3.460000e+05     1.959708e-18
 3.480000e+05     2.000681e-18
 3.500000e+05     2.044862e-18
 3.520000e+05     2.082215e-18
 3.540000e+05     2.116240e-18
 3.560000e+05     2.150344e-18
 3.580000e+05     2.185270e-18
 3.600000e+05     2.220535e-18
 3.620000e+05     2.256303e-18
 3.640000e+05     2.291943e-18
 3.660000e+05     2.328103e-18
 3.680000e+05     2.364871e-18
 3.700000e+05     2.400492e-18
 3.720000e+05     2.437940e-18
 3.740000e+05     2.475952e-18
 3.760000e+05     2.513382e-18
 3.780000e+05     2.551667e-18
 3.800000e+05     2.590514e-18
 3.820000e+05     2.629206e-18
 3.840000e+05     2.668063e-18
 3.860000e+05     2.707631e-18
 3.880000e+05     2.747545e-18
 3.900000e+05     2.786673e-18
 3.920000e+05     2.826812e-18
 4.320000e+05     3.669377e-18
 4.760000e+05     4.688867e-18
 5.250000e+05     5.922396e-18
 5.790000e+05     7.387160e-18
 6.390000e+05     9.121006e-18
 7.040000e+05     1.107417e-17
 7.760000e+05     1.328813e-17
 8.560000e+05     1.564954e-17
 9.430000e+05     1.791937e-17
 1.040000e+06     1.993241e-17
 1.147000e+06     2.146816e-17
 1.264000e+06     2.237290e-17
 1.394000e+06     2.257978e-17
 1.537000e+06     2.209148e-17
 1.694000e+06     2.099326e-17
 1.868000e+06     1.940283e-17
 2.059000e+06     1.749363e-17
 2.270000e+06     1.541241e-17
 2.503000e+06     1.330124e-17
 2.760000e+06     1.127362e-17
 3.043000e+06     9.410505e-18
 3.354000e+06     7.758319e-18
 3.698000e+06     6.324719e-18
