## EBL from Khaire & Srianand 2018; Q19 Model with alpha=-1.9 
## Column1:wavelength (Angstrom);  Column2:EBL specific intensity J_nu (erg/s/cm^2/Hz/Sr)
## ===========================================================================================
 1.000000e-08     4.821175e-37
 1.122019e-08     7.011253e-37
 1.258925e-08     1.004870e-36
 1.412538e-08     1.413098e-36
 1.584893e-08     1.949091e-36
 1.778279e-08     2.639921e-36
 1.995263e-08     3.516769e-36
 2.238721e-08     4.615345e-36
 2.511887e-08     5.976518e-36
 2.818382e-08     7.646990e-36
 3.162278e-08     9.680282e-36
 3.548135e-08     1.213773e-35
 3.981071e-08     1.508982e-35
 4.466837e-08     1.861776e-35
 5.011870e-08     2.281506e-35
 5.623413e-08     2.778984e-35
 6.309576e-08     3.366696e-35
 7.079456e-08     4.059079e-35
 7.943284e-08     4.872870e-35
 8.912505e-08     5.827417e-35
 1.000000e-07     6.945171e-35
 1.122019e-07     8.252117e-35
 1.258925e-07     9.778359e-35
 1.412538e-07     1.155885e-34
 1.584892e-07     1.363399e-34
 1.778279e-07     1.605075e-34
 1.995263e-07     1.886346e-34
 2.238721e-07     2.213509e-34
 2.511887e-07     2.593872e-34
 2.818382e-07     3.035894e-34
 3.162278e-07     3.549391e-34
 3.548136e-07     4.145727e-34
 3.981071e-07     4.838073e-34
 4.466837e-07     5.641712e-34
 5.011870e-07     6.574324e-34
 5.623413e-07     7.656437e-34
 6.309576e-07     8.911808e-34
 7.079456e-07     1.036797e-33
 7.943284e-07     1.205686e-33
 8.912505e-07     1.401543e-33
 1.000000e-06     1.628659e-33
 1.122019e-06     1.891999e-33
 1.258925e-06     2.197315e-33
 1.412538e-06     2.551286e-33
 1.584893e-06     2.961631e-33
 1.778279e-06     3.437312e-33
 1.995263e-06     3.988711e-33
 2.238721e-06     4.627846e-33
 2.511887e-06     5.368664e-33
 2.818382e-06     6.227304e-33
 3.162278e-06     7.222496e-33
 3.548136e-06     8.375919e-33
 3.981071e-06     9.712688e-33
 4.466837e-06     1.126195e-32
 5.011870e-06     1.305742e-32
 5.623413e-06     1.513824e-32
 6.309576e-06     1.754969e-32
 7.079456e-06     2.034426e-32
 7.943284e-06     2.358285e-32
 8.912505e-06     2.733588e-32
 1.000000e-05     3.168515e-32
 1.122019e-05     3.672527e-32
 1.258925e-05     4.256590e-32
 1.412538e-05     4.933427e-32
 1.584893e-05     5.717755e-32
 1.778279e-05     6.626653e-32
 1.995263e-05     7.679905e-32
 2.238721e-05     8.900415e-32
 2.511887e-05     1.031476e-31
 2.818382e-05     1.195369e-31
 3.162278e-05     1.385290e-31
 3.548135e-05     1.605371e-31
 3.981071e-05     1.860397e-31
 4.466837e-05     2.155923e-31
 5.011870e-05     2.498372e-31
 5.623413e-05     2.895202e-31
 6.309577e-05     3.355045e-31
 7.079457e-05     3.887899e-31
 7.943284e-05     4.505369e-31
 8.912505e-05     5.220876e-31
 1.000000e-04     6.050002e-31
 1.122018e-04     7.010771e-31
 1.258926e-04     8.123087e-31
 1.412538e-04     9.389509e-31
 1.584893e-04     1.084603e-30
 1.778279e-04     1.253087e-30
 1.995262e-04     1.448608e-30
 2.238722e-04     1.675951e-30
 2.511887e-04     1.940658e-30
 2.818383e-04     2.249223e-30
 3.162278e-04     2.609281e-30
 3.548134e-04     3.029842e-30
 3.981073e-04     3.521549e-30
 4.466837e-04     4.096981e-30
 5.011873e-04     4.771033e-30
 5.623413e-04     5.561349e-30
 6.309572e-04     6.488834e-30
 7.079460e-04     7.578297e-30
 7.943284e-04     8.859155e-30
 8.912510e-04     1.036637e-29
 1.000000e-03     1.214147e-29
 1.122018e-03     1.423382e-29
 1.258926e-03     1.670222e-29
 1.412538e-03     1.961653e-29
 1.584893e-03     2.306003e-29
 1.778279e-03     2.713192e-29
 1.995262e-03     3.195047e-29
 2.238722e-03     3.765668e-29
 2.511887e-03     4.441872e-29
 2.818383e-03     5.243738e-29
 3.162278e-03     6.195239e-29
 3.548133e-03     7.324996e-29
 3.981073e-03     8.667230e-29
 4.466837e-03     1.026281e-28
 5.011873e-03     1.216064e-28
 5.623413e-03     1.441929e-28
 6.309573e-03     1.710909e-28
 7.079460e-03     2.031483e-28
 7.943284e-03     2.413937e-28
 8.912510e-03     2.870864e-28
 1.000000e-02     3.417798e-28
 1.122019e-02     4.074038e-28
 1.258925e-02     4.863602e-28
 1.412538e-02     5.816394e-28
 1.584894e-02     6.969329e-28
 1.778279e-02     8.367624e-28
 1.995263e-02     1.006610e-27
 2.238721e-02     1.213040e-27
 2.511887e-02     1.463853e-27
 2.818385e-02     1.768235e-27
 3.162277e-02     2.136950e-27
 3.548136e-02     2.582597e-27
 3.981071e-02     3.119874e-27
 4.466837e-02     3.765998e-27
 5.011876e-02     4.541142e-27
 5.623413e-02     5.469020e-27
 6.309576e-02     6.577640e-27
 7.079456e-02     7.900089e-27
 7.943284e-02     9.475666e-27
 8.912515e-02     1.135103e-26
 1.000000e-01     1.358170e-26
 1.122019e-01     1.623550e-26
 1.258925e-01     1.932211e-26
 1.412538e-01     2.276177e-26
 1.584894e-01     2.649440e-26
 1.778279e-01     3.047275e-26
 1.995263e-01     3.465792e-26
 2.238721e-01     3.901654e-26
 2.511887e-01     4.351983e-26
 2.818385e-01     4.814284e-26
 3.162278e-01     5.286425e-26
 3.548135e-01     5.766639e-26
 3.981071e-01     6.253492e-26
 4.466837e-01     6.745878e-26
 5.011876e-01     7.242975e-26
 5.623413e-01     7.744222e-26
 6.309576e-01     8.249293e-26
 7.079456e-01     8.758038e-26
 7.943284e-01     9.270476e-26
 8.912515e-01     9.786729e-26
 1.000000e+00     1.030700e-25
 1.122019e+00     1.083158e-25
 1.258925e+00     1.136073e-25
 1.412538e+00     1.189476e-25
 1.584894e+00     1.243395e-25
 1.778279e+00     1.297857e-25
 1.995263e+00     1.352881e-25
 2.238721e+00     1.408486e-25
 2.511887e+00     1.464684e-25
 2.818385e+00     1.521486e-25
 3.162278e+00     1.578898e-25
 3.548136e+00     1.636928e-25
 3.981071e+00     1.695583e-25
 4.466837e+00     1.754871e-25
 5.011876e+00     1.814805e-25
 5.623413e+00     1.875391e-25
 6.309576e+00     1.935699e-25
 7.079456e+00     1.982751e-25
 7.943284e+00     2.024814e-25
 8.912516e+00     2.071994e-25
 1.000000e+01     2.137145e-25
 1.122019e+01     2.226751e-25
 1.258925e+01     2.346324e-25
 1.412538e+01     2.501511e-25
 1.584894e+01     2.697268e-25
 1.778279e+01     2.939083e-25
 1.995263e+01     3.227643e-25
 2.238721e+01     3.562879e-25
 2.511887e+01     3.918072e-25
 2.818385e+01     4.359209e-25
 3.162278e+01     4.831247e-25
 3.548135e+01     5.300997e-25
 3.981071e+01     5.784268e-25
 4.466837e+01     6.252751e-25
 5.011876e+01     6.678287e-25
 5.623413e+01     7.061291e-25
 6.309576e+01     7.427267e-25
 7.079456e+01     7.790920e-25
 7.943284e+01     8.180298e-25
 8.912515e+01     8.599429e-25
 1.000000e+02     9.064286e-25
 1.120000e+02     9.554904e-25
 1.250000e+02     1.003912e-24
 1.400000e+02     1.054332e-24
 1.550000e+02     1.098515e-24
 1.650000e+02     1.124706e-24
 1.750000e+02     1.149073e-24
 1.850000e+02     1.172835e-24
 1.900000e+02     1.186506e-24
 1.950000e+02     1.204984e-24
 2.000000e+02     1.235323e-24
 2.050000e+02     1.293353e-24
 2.100000e+02     1.411031e-24
 2.150000e+02     1.653313e-24
 2.180000e+02     1.906905e-24
 2.210000e+02     2.290827e-24
 2.240000e+02     2.867983e-24
 2.260000e+02     3.401314e-24
 2.270000e+02     3.726021e-24
 2.275000e+02     3.903919e-24
 2.278400e+02     4.032137e-24
 2.380000e+02     1.175601e-23
 2.500000e+02     2.036869e-23
 2.700000e+02     3.182813e-23
 2.900000e+02     4.140507e-23
 3.035000e+02     4.710355e-23
 3.037800e+02     8.488370e-23
 3.045000e+02     8.402711e-23
 3.060000e+02     8.261064e-23
 3.080000e+02     8.079687e-23
 3.100000e+02     7.915038e-23
 3.120000e+02     7.758109e-23
 3.150000e+02     7.550632e-23
 3.200000e+02     7.264966e-23
 3.250000e+02     7.035234e-23
 3.300000e+02     6.865655e-23
 3.400000e+02     6.674490e-23
 3.600000e+02     6.693210e-23
 3.800000e+02     7.022986e-23
 4.050000e+02     7.602281e-23
 4.250000e+02     8.103134e-23
 4.500000e+02     8.746959e-23
 4.650000e+02     9.132348e-23
 4.750000e+02     9.394846e-23
 4.820000e+02     9.581029e-23
 4.870000e+02     9.716445e-23
 4.910000e+02     9.814760e-23
 4.950000e+02     9.914932e-23
 4.980000e+02     1.000183e-22
 5.000000e+02     1.005188e-22
 5.020000e+02     1.010128e-22
 5.039800e+02     1.015235e-22
 5.100000e+02     1.046796e-22
 5.250000e+02     1.120427e-22
 5.600000e+02     1.266462e-22
 6.000000e+02     1.414301e-22
 6.500000e+02     1.587924e-22
 7.000000e+02     1.770241e-22
 7.500000e+02     1.980081e-22
 8.000000e+02     2.239348e-22
 8.300000e+02     2.425739e-22
 8.600000e+02     2.648420e-22
 8.800000e+02     2.814952e-22
 8.900000e+02     2.908664e-22
 8.960000e+02     2.966164e-22
 9.000000e+02     3.003738e-22
 9.030000e+02     3.035087e-22
 9.060000e+02     3.064897e-22
 9.090000e+02     3.095010e-22
 9.117800e+02     3.125513e-22
 9.300000e+02     7.548683e-22
 9.500000e+02     1.222210e-21
 9.750000e+02     2.166074e-21
 9.900000e+02     2.603734e-21
 1.005000e+03     3.143140e-21
 1.025000e+03     4.101994e-21
 1.045000e+03     4.932948e-21
 1.065000e+03     6.056797e-21
 1.085000e+03     7.207656e-21
 1.105000e+03     8.336315e-21
 1.125000e+03     9.578108e-21
 1.145000e+03     1.069305e-20
 1.165000e+03     1.198093e-20
 1.185000e+03     1.309228e-20
 1.205000e+03     1.422831e-20
 1.215600e+03     1.477918e-20
 1.215670e+03     1.563361e-20
 1.216000e+03     1.565000e-20
 1.218000e+03     1.574223e-20
 1.221000e+03     1.586342e-20
 1.225000e+03     1.599530e-20
 1.230000e+03     1.618636e-20
 1.240000e+03     1.671390e-20
 1.250000e+03     1.728721e-20
 1.265000e+03     1.825484e-20
 1.285000e+03     1.954217e-20
 1.305000e+03     2.092882e-20
 1.325000e+03     2.219173e-20
 1.345000e+03     2.355186e-20
 1.365000e+03     2.481266e-20
 1.385000e+03     2.602729e-20
 1.405000e+03     2.714047e-20
 1.425000e+03     2.825538e-20
 1.442000e+03     2.923725e-20
 1.455000e+03     2.999833e-20
 1.475000e+03     3.115521e-20
 1.517000e+03     3.325860e-20
 1.595000e+03     3.649108e-20
 1.672000e+03     3.944432e-20
 1.745000e+03     4.192509e-20
 1.825000e+03     4.426389e-20
 1.905000e+03     4.608637e-20
 1.984000e+03     4.765811e-20
 2.065000e+03     4.882100e-20
 2.135000e+03     4.949413e-20
 2.215000e+03     5.009248e-20
 2.295000e+03     5.061809e-20
 2.375000e+03     5.112168e-20
 2.455000e+03     5.178294e-20
 2.525000e+03     5.224642e-20
 2.605000e+03     5.291891e-20
 2.685000e+03     5.383679e-20
 2.765000e+03     5.454364e-20
 2.845000e+03     5.506543e-20
 2.950000e+03     5.599985e-20
 3.110000e+03     5.731232e-20
 3.270000e+03     5.840653e-20
 3.430000e+03     5.935982e-20
 3.590000e+03     6.023061e-20
 3.730000e+03     6.133399e-20
 3.890000e+03     6.556310e-20
 4.050000e+03     6.983129e-20
 4.210000e+03     7.617429e-20
 4.370000e+03     8.159702e-20
 4.530000e+03     8.671330e-20
 4.690000e+03     9.145255e-20
 4.850000e+03     9.512851e-20
 5.010000e+03     9.845451e-20
 5.170000e+03     1.014404e-19
 5.330000e+03     1.042534e-19
 5.490000e+03     1.068364e-19
 5.650000e+03     1.093085e-19
 5.810000e+03     1.117212e-19
 5.970000e+03     1.136549e-19
 6.130000e+03     1.155775e-19
 6.290000e+03     1.172334e-19
 6.450000e+03     1.187280e-19
 6.610000e+03     1.200699e-19
 6.770000e+03     1.214424e-19
 6.930000e+03     1.226737e-19
 7.090000e+03     1.237645e-19
 7.250000e+03     1.247698e-19
 7.410000e+03     1.257388e-19
 7.570000e+03     1.267154e-19
 7.730000e+03     1.277834e-19
 7.890000e+03     1.287560e-19
 8.050000e+03     1.296234e-19
 8.210000e+03     1.305122e-19
 8.370000e+03     1.313447e-19
 8.530000e+03     1.321177e-19
 8.690000e+03     1.329203e-19
 8.850000e+03     1.339228e-19
 9.010000e+03     1.348341e-19
 9.170000e+03     1.356692e-19
 9.330000e+03     1.368157e-19
 9.490000e+03     1.378561e-19
 9.650000e+03     1.387666e-19
 9.810000e+03     1.397040e-19
 9.970000e+03     1.406473e-19
 1.050000e+04     1.430180e-19
 1.150000e+04     1.453804e-19
 1.250000e+04     1.468217e-19
 1.350000e+04     1.476788e-19
 1.450000e+04     1.485362e-19
 1.550000e+04     1.501772e-19
 1.650000e+04     1.513201e-19
 1.750000e+04     1.508521e-19
 1.850000e+04     1.487579e-19
 1.950000e+04     1.453540e-19
 2.050000e+04     1.415703e-19
 2.150000e+04     1.375054e-19
 2.250000e+04     1.330560e-19
 2.350000e+04     1.275237e-19
 2.450000e+04     1.211821e-19
 2.550000e+04     1.158140e-19
 2.650000e+04     1.106554e-19
 2.750000e+04     1.063115e-19
 2.850000e+04     1.023516e-19
 2.950000e+04     9.865298e-20
 3.050000e+04     9.514883e-20
 3.150000e+04     9.181333e-20
 3.250000e+04     8.861595e-20
 3.350000e+04     8.555866e-20
 3.450000e+04     8.266580e-20
 3.550000e+04     7.996817e-20
 3.650000e+04     7.744222e-20
 3.750000e+04     7.507826e-20
 3.850000e+04     7.288815e-20
 3.950000e+04     7.089986e-20
 4.050000e+04     6.943962e-20
 4.150000e+04     6.780530e-20
 4.250000e+04     6.596658e-20
 4.350000e+04     6.403129e-20
 4.450000e+04     6.209888e-20
 4.550000e+04     6.027483e-20
 4.650000e+04     5.868578e-20
 4.750000e+04     5.738603e-20
 4.850000e+04     5.650033e-20
 4.950000e+04     5.603448e-20
 5.050000e+04     5.594371e-20
 5.150000e+04     5.621277e-20
 5.250000e+04     5.687002e-20
 5.350000e+04     5.796372e-20
 5.450000e+04     5.953832e-20
 5.550000e+04     6.168055e-20
 5.650000e+04     6.424234e-20
 5.750000e+04     6.731164e-20
 5.850000e+04     6.935863e-20
 5.950000e+04     7.095564e-20
 6.050000e+04     7.390031e-20
 6.150000e+04     7.986584e-20
 6.250000e+04     9.419654e-20
 6.350000e+04     1.041506e-19
 6.450000e+04     1.079348e-19
 6.550000e+04     1.111949e-19
 6.650010e+04     1.142954e-19
 6.750010e+04     1.179041e-19
 6.850010e+04     1.208120e-19
 6.950010e+04     1.251453e-19
 7.020000e+04     1.292882e-19
 7.100000e+04     1.334842e-19
 7.180000e+04     1.373512e-19
 7.260000e+04     1.415215e-19
 7.340000e+04     1.469186e-19
 7.420000e+04     1.549294e-19
 7.500000e+04     1.662829e-19
 7.580000e+04     1.807352e-19
 7.660000e+04     1.968308e-19
 7.740000e+04     2.122247e-19
 7.820000e+04     2.265539e-19
 7.900000e+04     2.393606e-19
 7.980000e+04     2.492991e-19
 8.060000e+04     2.563529e-19
 8.140000e+04     2.611914e-19
 8.220000e+04     2.647929e-19
 8.300000e+04     2.676759e-19
 8.380000e+04     2.701822e-19
 8.460000e+04     2.726620e-19
 8.540000e+04     2.755054e-19
 8.620000e+04     2.787051e-19
 8.700000e+04     2.810149e-19
 8.780000e+04     2.814048e-19
 8.860000e+04     2.801831e-19
 8.940000e+04     2.782823e-19
 9.020000e+04     2.759577e-19
 9.100000e+04     2.732616e-19
 9.180000e+04     2.704625e-19
 9.260000e+04     2.675365e-19
 9.340000e+04     2.644692e-19
 9.420000e+04     2.613740e-19
 9.500000e+04     2.584371e-19
 9.580000e+04     2.555045e-19
 9.660000e+04     2.531366e-19
 9.740000e+04     2.511142e-19
 9.820000e+04     2.487097e-19
 9.900000e+04     2.463274e-19
 9.980000e+04     2.441662e-19
 1.006000e+05     2.423536e-19
 1.020000e+05     2.397113e-19
 1.040000e+05     2.370375e-19
 1.060000e+05     2.366332e-19
 1.080000e+05     2.373681e-19
 1.100000e+05     2.393216e-19
 1.120000e+05     2.495499e-19
 1.140000e+05     2.716254e-19
 1.160000e+05     2.784432e-19
 1.180000e+05     2.829319e-19
 1.200000e+05     2.886064e-19
 1.220000e+05     2.967781e-19
 1.240000e+05     3.075231e-19
 1.260000e+05     3.217835e-19
 1.280000e+05     3.456892e-19
 1.300000e+05     3.684048e-19
 1.320000e+05     3.696038e-19
 1.340000e+05     3.781490e-19
 1.360000e+05     3.824303e-19
 1.380000e+05     3.883964e-19
 1.400000e+05     3.925474e-19
 1.420000e+05     3.983580e-19
 1.440000e+05     4.037104e-19
 1.460000e+05     4.090778e-19
 1.480000e+05     4.147297e-19
 1.500000e+05     4.208854e-19
 1.520000e+05     4.268169e-19
 1.540000e+05     4.328634e-19
 1.560000e+05     4.417785e-19
 1.580000e+05     4.494457e-19
 1.600000e+05     4.548259e-19
 1.620000e+05     4.610619e-19
 1.640000e+05     4.685287e-19
 1.660000e+05     4.792555e-19
 1.680000e+05     4.881217e-19
 1.700000e+05     4.992809e-19
 1.720000e+05     5.117378e-19
 1.740000e+05     5.219316e-19
 1.760000e+05     5.300060e-19
 1.780000e+05     5.378322e-19
 1.800000e+05     5.453840e-19
 1.820000e+05     5.525574e-19
 1.840000e+05     5.593622e-19
 1.860000e+05     5.667524e-19
 1.880000e+05     5.787423e-19
 1.900000e+05     5.875158e-19
 1.920000e+05     5.956906e-19
 1.940000e+05     6.053612e-19
 1.960000e+05     6.166326e-19
 1.980000e+05     6.295339e-19
 2.000000e+05     6.436514e-19
 2.020000e+05     6.589613e-19
 2.040000e+05     6.761518e-19
 2.060000e+05     6.929785e-19
 2.080000e+05     7.100546e-19
 2.100000e+05     7.292835e-19
 2.120000e+05     7.487333e-19
 2.140000e+05     7.676807e-19
 2.160000e+05     7.892561e-19
 2.180000e+05     8.122867e-19
 2.200000e+05     8.340611e-19
 2.220000e+05     8.568460e-19
 2.240000e+05     8.822216e-19
 2.260000e+05     9.071587e-19
 2.280000e+05     9.317026e-19
 2.300000e+05     9.583728e-19
 2.320000e+05     9.872620e-19
 2.340000e+05     1.016663e-18
 2.360000e+05     1.046316e-18
 2.380000e+05     1.077926e-18
 2.400000e+05     1.111752e-18
 2.420000e+05     1.146596e-18
 2.440000e+05     1.181970e-18
 2.460000e+05     1.219160e-18
 2.480000e+05     1.258723e-18
 2.500000e+05     1.299448e-18
 2.520000e+05     1.340414e-18
 2.540000e+05     1.382897e-18
 2.560000e+05     1.427488e-18
 2.580000e+05     1.474009e-18
 2.600000e+05     1.521823e-18
 2.620000e+05     1.569784e-18
 2.640000e+05     1.618297e-18
 2.660000e+05     1.668282e-18
 2.680000e+05     1.720281e-18
 2.700000e+05     1.772634e-18
 2.720000e+05     1.824750e-18
 2.740000e+05     1.876790e-18
 2.760000e+05     1.930875e-18
 2.780000e+05     1.986842e-18
 2.800000e+05     2.045304e-18
 2.820000e+05     2.105944e-18
 2.840000e+05     2.166273e-18
 2.860000e+05     2.225988e-18
 2.880000e+05     2.286384e-18
 2.900000e+05     2.348550e-18
 2.920000e+05     2.412685e-18
 2.940000e+05     2.477435e-18
 2.960000e+05     2.543784e-18
 2.980000e+05     2.610575e-18
 3.000000e+05     2.677176e-18
 3.020000e+05     2.745234e-18
 3.040000e+05     2.815219e-18
 3.060000e+05     2.885808e-18
 3.080000e+05     2.957386e-18
 3.100000e+05     3.028794e-18
 3.120000e+05     3.099802e-18
 3.140000e+05     3.173694e-18
 3.160000e+05     3.248635e-18
 3.180000e+05     3.324824e-18
 3.200000e+05     3.404086e-18
 3.220000e+05     3.483244e-18
 3.240000e+05     3.563256e-18
 3.260000e+05     3.646272e-18
 3.280000e+05     3.728493e-18
 3.300000e+05     3.810780e-18
 3.320000e+05     3.892719e-18
 3.340000e+05     3.984237e-18
 3.360000e+05     4.083862e-18
 3.380000e+05     4.176667e-18
 3.400000e+05     4.254302e-18
 3.420000e+05     4.337883e-18
 3.440000e+05     4.423828e-18
 3.460000e+05     4.501138e-18
 3.480000e+05     4.597875e-18
 3.500000e+05     4.708977e-18
 3.520000e+05     4.807813e-18
 3.540000e+05     4.897983e-18
 3.560000e+05     4.984644e-18
 3.580000e+05     5.064973e-18
 3.600000e+05     5.148241e-18
 3.620000e+05     5.235913e-18
 3.640000e+05     5.322028e-18
 3.660000e+05     5.406109e-18
 3.680000e+05     5.490905e-18
 3.700000e+05     5.579148e-18
 3.720000e+05     5.669507e-18
 3.740000e+05     5.759045e-18
 3.760000e+05     5.849474e-18
 3.780000e+05     5.942097e-18
 3.800000e+05     6.036254e-18
 3.820000e+05     6.130262e-18
 3.840000e+05     6.225608e-18
 3.860000e+05     6.323764e-18
 3.880000e+05     6.423364e-18
 3.900000e+05     6.522816e-18
 3.920000e+05     6.623076e-18
 4.320000e+05     8.782479e-18
 4.760000e+05     1.129770e-17
 5.250000e+05     1.404309e-17
 5.790000e+05     1.682249e-17
 6.390000e+05     1.949676e-17
 7.040000e+05     2.175057e-17
 7.760000e+05     2.340291e-17
 8.560000e+05     2.431779e-17
 9.430000e+05     2.445928e-17
 1.040000e+06     2.390557e-17
 1.147000e+06     2.279233e-17
 1.264000e+06     2.130163e-17
 1.394000e+06     1.958329e-17
 1.537000e+06     1.779888e-17
 1.694000e+06     1.605219e-17
 1.868000e+06     1.439482e-17
 2.059000e+06     1.286876e-17
 2.270000e+06     1.146658e-17
 2.503000e+06     1.017596e-17
 2.760000e+06     8.979193e-18
 3.043000e+06     7.862028e-18
 3.354000e+06     6.816776e-18
 3.698000e+06     5.836195e-18
