## EBL from Khaire & Srianand 2018; Q19 Model with alpha=-1.9 
## Column1:wavelength (Angstrom);  Column2:EBL specific intensity J_nu (erg/s/cm^2/Hz/Sr)
## ===========================================================================================
 1.000000e-08     7.744245e-37
 1.122019e-08     1.128108e-36
 1.258925e-08     1.628721e-36
 1.412538e-08     2.318410e-36
 1.584893e-08     3.245813e-36
 1.778279e-08     4.466819e-36
 1.995263e-08     6.045473e-36
 2.238721e-08     8.055063e-36
 2.511887e-08     1.057951e-35
 2.818382e-08     1.371475e-35
 3.162278e-08     1.757069e-35
 3.548135e-08     2.227316e-35
 3.981071e-08     2.796652e-35
 4.466837e-08     3.481675e-35
 5.011870e-08     4.301462e-35
 5.623413e-08     5.278033e-35
 6.309576e-08     6.436774e-35
 7.079456e-08     7.807006e-35
 7.943284e-08     9.422681e-35
 8.912505e-08     1.132302e-34
 1.000000e-07     1.355352e-34
 1.122019e-07     1.616681e-34
 1.258925e-07     1.922383e-34
 1.412538e-07     2.279535e-34
 1.584892e-07     2.696315e-34
 1.778279e-07     3.182230e-34
 1.995263e-07     3.748275e-34
 2.238721e-07     4.407196e-34
 2.511887e-07     5.173784e-34
 2.818382e-07     6.065159e-34
 3.162278e-07     7.101190e-34
 3.548136e-07     8.304882e-34
 3.981071e-07     9.702885e-34
 4.466837e-07     1.132615e-33
 5.011870e-07     1.321046e-33
 5.623413e-07     1.539735e-33
 6.309576e-07     1.793495e-33
 7.079456e-07     2.087895e-33
 7.943284e-07     2.429404e-33
 8.912505e-07     2.825501e-33
 1.000000e-06     3.284874e-33
 1.122019e-06     3.817573e-33
 1.258925e-06     4.435243e-33
 1.412538e-06     5.151401e-33
 1.584893e-06     5.981682e-33
 1.778279e-06     6.944225e-33
 1.995263e-06     8.060048e-33
 2.238721e-06     9.353485e-33
 2.511887e-06     1.085277e-32
 2.818382e-06     1.259057e-32
 3.162278e-06     1.460481e-32
 3.548136e-06     1.693937e-32
 3.981071e-06     1.964512e-32
 4.466837e-06     2.278105e-32
 5.011870e-06     2.641542e-32
 5.623413e-06     3.062746e-32
 6.309576e-06     3.550888e-32
 7.079456e-06     4.116592e-32
 7.943284e-06     4.772186e-32
 8.912505e-06     5.531930e-32
 1.000000e-05     6.412382e-32
 1.122019e-05     7.432699e-32
 1.258925e-05     8.615078e-32
 1.412538e-05     9.985284e-32
 1.584893e-05     1.157311e-31
 1.778279e-05     1.341313e-31
 1.995263e-05     1.554539e-31
 2.238721e-05     1.801627e-31
 2.511887e-05     2.087958e-31
 2.818382e-05     2.419758e-31
 3.162278e-05     2.804252e-31
 3.548135e-05     3.249804e-31
 3.981071e-05     3.766107e-31
 4.466837e-05     4.364400e-31
 5.011870e-05     5.057692e-31
 5.623413e-05     5.861082e-31
 6.309577e-05     6.792045e-31
 7.079457e-05     7.870821e-31
 7.943284e-05     9.120905e-31
 8.912505e-05     1.056947e-30
 1.000000e-04     1.224806e-30
 1.122018e-04     1.419318e-30
 1.258926e-04     1.644660e-30
 1.412538e-04     1.903528e-30
 1.584893e-04     2.201230e-30
 1.778279e-04     2.544488e-30
 1.995262e-04     2.941362e-30
 2.238722e-04     3.401369e-30
 2.511887e-04     3.935650e-30
 2.818383e-04     4.557247e-30
 3.162278e-04     5.281445e-30
 3.548134e-04     6.126193e-30
 3.981073e-04     7.112634e-30
 4.466837e-04     8.265703e-30
 5.011873e-04     9.614877e-30
 5.623413e-04     1.119502e-29
 6.309572e-04     1.304740e-29
 7.079460e-04     1.522098e-29
 7.943284e-04     1.777372e-29
 8.912510e-04     2.077449e-29
 1.000000e-03     2.430505e-29
 1.122018e-03     2.846249e-29
 1.258926e-03     3.336235e-29
 1.412538e-03     3.914188e-29
 1.584893e-03     4.596458e-29
 1.778279e-03     5.402510e-29
 1.995262e-03     6.355533e-29
 2.238722e-03     7.483167e-29
 2.511887e-03     8.818354e-29
 2.818383e-03     1.040041e-28
 3.162278e-03     1.227625e-28
 3.548133e-03     1.450188e-28
 3.981073e-03     1.714420e-28
 4.466837e-03     2.028310e-28
 5.011873e-03     2.401412e-28
 5.623413e-03     2.845155e-28
 6.309573e-03     3.373239e-28
 7.079460e-03     4.002126e-28
 7.943284e-03     4.751686e-28
 8.912510e-03     5.646070e-28
 1.000000e-02     6.714839e-28
 1.122019e-02     7.994434e-28
 1.258925e-02     9.529972e-28
 1.412538e-02     1.137752e-27
 1.584894e-02     1.360644e-27
 1.778279e-02     1.630220e-27
 1.995263e-02     1.956932e-27
 2.238721e-02     2.353424e-27
 2.511887e-02     2.834880e-27
 2.818385e-02     3.419357e-27
 3.162277e-02     4.128182e-27
 3.548136e-02     4.986463e-27
 3.981071e-02     6.023585e-27
 4.466837e-02     7.274014e-27
 5.011876e-02     8.778089e-27
 5.623413e-02     1.058313e-26
 6.309576e-02     1.274488e-26
 7.079456e-02     1.532897e-26
 7.943284e-02     1.841308e-26
 8.912515e-02     2.208924e-26
 1.000000e-01     2.646667e-26
 1.122019e-01     3.167636e-26
 1.258925e-01     3.781514e-26
 1.412538e-01     4.486153e-26
 1.584894e-01     5.275539e-26
 1.778279e-01     6.141337e-26
 1.995263e-01     7.074219e-26
 2.238721e-01     8.064779e-26
 2.511887e-01     9.104208e-26
 2.818385e-01     1.018456e-25
 3.162278e-01     1.129888e-25
 3.548135e-01     1.244123e-25
 3.981071e-01     1.360663e-25
 4.466837e-01     1.479101e-25
 5.011876e-01     1.599115e-25
 5.623413e-01     1.720459e-25
 6.309576e-01     1.842956e-25
 7.079456e-01     1.966485e-25
 7.943284e-01     2.090982e-25
 8.912515e-01     2.216420e-25
 1.000000e+00     2.342807e-25
 1.122019e+00     2.470178e-25
 1.258925e+00     2.598582e-25
 1.412538e+00     2.728087e-25
 1.584894e+00     2.858759e-25
 1.778279e+00     2.990668e-25
 1.995263e+00     3.123887e-25
 2.238721e+00     3.258480e-25
 2.511887e+00     3.394513e-25
 2.818385e+00     3.532051e-25
 3.162278e+00     3.671166e-25
 3.548136e+00     3.811946e-25
 3.981071e+00     3.954505e-25
 4.466837e+00     4.099009e-25
 5.011876e+00     4.245692e-25
 5.623413e+00     4.394882e-25
 6.309576e+00     4.546511e-25
 7.079456e+00     4.687167e-25
 7.943284e+00     4.818928e-25
 8.912516e+00     4.951822e-25
 1.000000e+01     5.106040e-25
 1.122019e+01     5.300927e-25
 1.258925e+01     5.556353e-25
 1.412538e+01     5.892903e-25
 1.584894e+01     6.332592e-25
 1.778279e+01     6.899732e-25
 1.995263e+01     7.621619e-25
 2.238721e+01     8.528742e-25
 2.511887e+01     9.654410e-25
 2.818385e+01     1.103337e-24
 3.162278e+01     1.269932e-24
 3.548135e+01     1.468110e-24
 3.981071e+01     1.699603e-24
 4.466837e+01     1.964769e-24
 5.011876e+01     2.255724e-24
 5.623413e+01     2.587621e-24
 6.309576e+01     2.962081e-24
 7.079456e+01     3.390642e-24
 7.943284e+01     3.883930e-24
 8.912515e+01     4.457743e-24
 1.000000e+02     5.150760e-24
 1.120000e+02     5.952144e-24
 1.250000e+02     6.845449e-24
 1.400000e+02     7.902405e-24
 1.550000e+02     8.967944e-24
 1.650000e+02     9.669473e-24
 1.750000e+02     1.035638e-23
 1.850000e+02     1.101841e-23
 1.900000e+02     1.134782e-23
 1.950000e+02     1.167907e-23
 2.000000e+02     1.203150e-23
 2.050000e+02     1.239402e-23
 2.100000e+02     1.283340e-23
 2.150000e+02     1.343993e-23
 2.180000e+02     1.392463e-23
 2.210000e+02     1.461874e-23
 2.240000e+02     1.554032e-23
 2.260000e+02     1.638937e-23
 2.270000e+02     1.689948e-23
 2.275000e+02     1.716276e-23
 2.278400e+02     1.736531e-23
 2.380000e+02     2.105253e-23
 2.500000e+02     2.544481e-23
 2.700000e+02     3.284951e-23
 2.900000e+02     4.019572e-23
 3.035000e+02     4.538704e-23
 3.037800e+02     5.982434e-23
 3.045000e+02     6.008017e-23
 3.060000e+02     6.066375e-23
 3.080000e+02     6.142030e-23
 3.100000e+02     6.217592e-23
 3.120000e+02     6.294689e-23
 3.150000e+02     6.409536e-23
 3.200000e+02     6.590629e-23
 3.250000e+02     6.766980e-23
 3.300000e+02     6.940797e-23
 3.400000e+02     7.297933e-23
 3.600000e+02     7.916832e-23
 3.800000e+02     8.475914e-23
 4.050000e+02     9.211371e-23
 4.250000e+02     9.814691e-23
 4.500000e+02     1.056944e-22
 4.650000e+02     1.103789e-22
 4.750000e+02     1.142988e-22
 4.820000e+02     1.168066e-22
 4.870000e+02     1.185782e-22
 4.910000e+02     1.199245e-22
 4.950000e+02     1.212881e-22
 4.980000e+02     1.223157e-22
 5.000000e+02     1.230006e-22
 5.020000e+02     1.236958e-22
 5.039800e+02     1.243726e-22
 5.100000e+02     1.271582e-22
 5.250000e+02     1.333441e-22
 5.600000e+02     1.489793e-22
 6.000000e+02     1.679701e-22
 6.500000e+02     1.925767e-22
 7.000000e+02     2.188983e-22
 7.500000e+02     2.484161e-22
 8.000000e+02     2.801731e-22
 8.300000e+02     3.008768e-22
 8.600000e+02     3.233604e-22
 8.800000e+02     3.400714e-22
 8.900000e+02     3.481556e-22
 8.960000e+02     3.530790e-22
 9.000000e+02     3.565122e-22
 9.030000e+02     3.591532e-22
 9.060000e+02     3.618095e-22
 9.090000e+02     3.644813e-22
 9.117800e+02     3.669713e-22
 9.300000e+02     4.907748e-22
 9.500000e+02     5.612883e-22
 9.750000e+02     7.578939e-22
 9.900000e+02     8.131605e-22
 1.005000e+03     9.128011e-22
 1.025000e+03     1.062285e-21
 1.045000e+03     1.228723e-21
 1.065000e+03     1.450794e-21
 1.085000e+03     1.699550e-21
 1.105000e+03     1.954099e-21
 1.125000e+03     2.233580e-21
 1.145000e+03     2.518926e-21
 1.165000e+03     2.831406e-21
 1.185000e+03     3.148115e-21
 1.205000e+03     3.458404e-21
 1.215600e+03     3.616339e-21
 1.215670e+03     3.692982e-21
 1.216000e+03     3.697524e-21
 1.218000e+03     3.724859e-21
 1.221000e+03     3.764261e-21
 1.225000e+03     3.813982e-21
 1.230000e+03     3.880602e-21
 1.240000e+03     4.046295e-21
 1.250000e+03     4.210045e-21
 1.265000e+03     4.512824e-21
 1.285000e+03     4.921408e-21
 1.305000e+03     5.347140e-21
 1.325000e+03     5.777596e-21
 1.345000e+03     6.228919e-21
 1.365000e+03     6.691391e-21
 1.385000e+03     7.162771e-21
 1.405000e+03     7.625016e-21
 1.425000e+03     8.088651e-21
 1.442000e+03     8.483079e-21
 1.455000e+03     8.793266e-21
 1.475000e+03     9.291753e-21
 1.517000e+03     1.027657e-20
 1.595000e+03     1.202031e-20
 1.672000e+03     1.376836e-20
 1.745000e+03     1.538711e-20
 1.825000e+03     1.708531e-20
 1.905000e+03     1.863516e-20
 1.984000e+03     2.002843e-20
 2.065000e+03     2.131336e-20
 2.135000e+03     2.222234e-20
 2.215000e+03     2.315625e-20
 2.295000e+03     2.404311e-20
 2.375000e+03     2.492539e-20
 2.455000e+03     2.581840e-20
 2.525000e+03     2.659032e-20
 2.605000e+03     2.747974e-20
 2.685000e+03     2.850138e-20
 2.765000e+03     2.946138e-20
 2.845000e+03     3.028773e-20
 2.950000e+03     3.153934e-20
 3.110000e+03     3.346830e-20
 3.270000e+03     3.529686e-20
 3.430000e+03     3.711094e-20
 3.590000e+03     3.888215e-20
 3.730000e+03     4.049759e-20
 3.890000e+03     4.366338e-20
 4.050000e+03     4.689073e-20
 4.210000e+03     5.221719e-20
 4.370000e+03     5.702802e-20
 4.530000e+03     6.192287e-20
 4.690000e+03     6.695536e-20
 4.850000e+03     7.162798e-20
 5.010000e+03     7.579013e-20
 5.170000e+03     8.012820e-20
 5.330000e+03     8.421785e-20
 5.490000e+03     8.833146e-20
 5.650000e+03     9.235298e-20
 5.810000e+03     9.634066e-20
 5.970000e+03     9.998720e-20
 6.130000e+03     1.035628e-19
 6.290000e+03     1.068826e-19
 6.450000e+03     1.100918e-19
 6.610000e+03     1.130513e-19
 6.770000e+03     1.160309e-19
 6.930000e+03     1.188026e-19
 7.090000e+03     1.214220e-19
 7.250000e+03     1.239065e-19
 7.410000e+03     1.262926e-19
 7.570000e+03     1.286065e-19
 7.730000e+03     1.309225e-19
 7.890000e+03     1.331332e-19
 8.050000e+03     1.352186e-19
 8.210000e+03     1.372308e-19
 8.370000e+03     1.392055e-19
 8.530000e+03     1.410279e-19
 8.690000e+03     1.428301e-19
 8.850000e+03     1.447030e-19
 9.010000e+03     1.465087e-19
 9.170000e+03     1.482497e-19
 9.330000e+03     1.500071e-19
 9.490000e+03     1.519514e-19
 9.650000e+03     1.535267e-19
 9.810000e+03     1.552402e-19
 9.970000e+03     1.569184e-19
 1.050000e+04     1.618443e-19
 1.150000e+04     1.685488e-19
 1.250000e+04     1.740100e-19
 1.350000e+04     1.781621e-19
 1.450000e+04     1.817327e-19
 1.550000e+04     1.853296e-19
 1.650000e+04     1.883751e-19
 1.750000e+04     1.897726e-19
 1.850000e+04     1.893709e-19
 1.950000e+04     1.874242e-19
 2.050000e+04     1.845229e-19
 2.150000e+04     1.810834e-19
 2.250000e+04     1.770632e-19
 2.350000e+04     1.721516e-19
 2.450000e+04     1.661436e-19
 2.550000e+04     1.605418e-19
 2.650000e+04     1.549095e-19
 2.750000e+04     1.497823e-19
 2.850000e+04     1.449833e-19
 2.950000e+04     1.403612e-19
 3.050000e+04     1.358979e-19
 3.150000e+04     1.315726e-19
 3.250000e+04     1.273625e-19
 3.350000e+04     1.232389e-19
 3.450000e+04     1.191726e-19
 3.550000e+04     1.153608e-19
 3.650000e+04     1.117577e-19
 3.750000e+04     1.083422e-19
 3.850000e+04     1.050597e-19
 3.950000e+04     1.019489e-19
 4.050000e+04     9.899366e-20
 4.150000e+04     9.608690e-20
 4.250000e+04     9.324856e-20
 4.350000e+04     9.048430e-20
 4.450000e+04     8.782972e-20
 4.550000e+04     8.528226e-20
 4.650000e+04     8.283977e-20
 4.750000e+04     8.048037e-20
 4.850000e+04     7.825459e-20
 4.950000e+04     7.625410e-20
 5.050000e+04     7.460179e-20
 5.150000e+04     7.356860e-20
 5.250000e+04     7.393914e-20
 5.350000e+04     7.609186e-20
 5.450000e+04     7.789784e-20
 5.550000e+04     7.914799e-20
 5.650000e+04     8.134660e-20
 5.750000e+04     8.458385e-20
 5.850000e+04     8.769741e-20
 5.950000e+04     9.120932e-20
 6.050000e+04     9.683995e-20
 6.150000e+04     1.058813e-19
 6.250000e+04     1.240824e-19
 6.350000e+04     1.375833e-19
 6.450000e+04     1.441244e-19
 6.550000e+04     1.468351e-19
 6.650010e+04     1.513811e-19
 6.750010e+04     1.552464e-19
 6.850010e+04     1.582911e-19
 6.950010e+04     1.640682e-19
 7.020000e+04     1.693168e-19
 7.100000e+04     1.750049e-19
 7.180000e+04     1.819819e-19
 7.260000e+04     1.900776e-19
 7.340000e+04     1.997299e-19
 7.420000e+04     2.125647e-19
 7.500000e+04     2.294283e-19
 7.580000e+04     2.490899e-19
 7.660000e+04     2.700511e-19
 7.740000e+04     2.896093e-19
 7.820000e+04     3.071940e-19
 7.900000e+04     3.218919e-19
 7.980000e+04     3.325786e-19
 8.060000e+04     3.402794e-19
 8.140000e+04     3.455634e-19
 8.220000e+04     3.490694e-19
 8.300000e+04     3.524735e-19
 8.380000e+04     3.561261e-19
 8.460000e+04     3.597370e-19
 8.540000e+04     3.637862e-19
 8.620000e+04     3.679904e-19
 8.700000e+04     3.710011e-19
 8.780000e+04     3.716467e-19
 8.860000e+04     3.699685e-19
 8.940000e+04     3.667770e-19
 9.020000e+04     3.626526e-19
 9.100000e+04     3.581346e-19
 9.180000e+04     3.533520e-19
 9.260000e+04     3.483344e-19
 9.340000e+04     3.431884e-19
 9.420000e+04     3.381616e-19
 9.500000e+04     3.333560e-19
 9.580000e+04     3.287304e-19
 9.660000e+04     3.245588e-19
 9.740000e+04     3.205629e-19
 9.820000e+04     3.161438e-19
 9.900000e+04     3.117370e-19
 9.980000e+04     3.074341e-19
 1.006000e+05     3.034945e-19
 1.020000e+05     2.968346e-19
 1.040000e+05     2.886154e-19
 1.060000e+05     2.852329e-19
 1.080000e+05     2.848742e-19
 1.100000e+05     2.852302e-19
 1.120000e+05     2.972426e-19
 1.140000e+05     3.250065e-19
 1.160000e+05     3.386027e-19
 1.180000e+05     3.387136e-19
 1.200000e+05     3.472334e-19
 1.220000e+05     3.566180e-19
 1.240000e+05     3.663661e-19
 1.260000e+05     3.797737e-19
 1.280000e+05     4.017697e-19
 1.300000e+05     4.198674e-19
 1.320000e+05     4.262018e-19
 1.340000e+05     4.273524e-19
 1.360000e+05     4.356518e-19
 1.380000e+05     4.404366e-19
 1.400000e+05     4.407683e-19
 1.420000e+05     4.491089e-19
 1.440000e+05     4.538723e-19
 1.460000e+05     4.549771e-19
 1.480000e+05     4.613134e-19
 1.500000e+05     4.653588e-19
 1.520000e+05     4.684576e-19
 1.540000e+05     4.741632e-19
 1.560000e+05     4.817583e-19
 1.580000e+05     4.885137e-19
 1.600000e+05     4.959661e-19
 1.620000e+05     5.040372e-19
 1.640000e+05     5.144401e-19
 1.660000e+05     5.292178e-19
 1.680000e+05     5.422333e-19
 1.700000e+05     5.568327e-19
 1.720000e+05     5.717275e-19
 1.740000e+05     5.857558e-19
 1.760000e+05     5.979499e-19
 1.780000e+05     6.073829e-19
 1.800000e+05     6.170807e-19
 1.820000e+05     6.275268e-19
 1.840000e+05     6.376529e-19
 1.860000e+05     6.476623e-19
 1.880000e+05     6.651313e-19
 1.900000e+05     6.777900e-19
 1.920000e+05     6.898568e-19
 1.940000e+05     7.012666e-19
 1.960000e+05     7.135605e-19
 1.980000e+05     7.266188e-19
 2.000000e+05     7.406351e-19
 2.020000e+05     7.548936e-19
 2.040000e+05     7.699295e-19
 2.060000e+05     7.855175e-19
 2.080000e+05     8.012556e-19
 2.100000e+05     8.180022e-19
 2.120000e+05     8.354207e-19
 2.140000e+05     8.526114e-19
 2.160000e+05     8.717880e-19
 2.180000e+05     8.924829e-19
 2.200000e+05     9.118926e-19
 2.220000e+05     9.321472e-19
 2.240000e+05     9.550901e-19
 2.260000e+05     9.780165e-19
 2.280000e+05     1.000449e-18
 2.300000e+05     1.024236e-18
 2.320000e+05     1.050037e-18
 2.340000e+05     1.076240e-18
 2.360000e+05     1.102013e-18
 2.380000e+05     1.128928e-18
 2.400000e+05     1.157677e-18
 2.420000e+05     1.186826e-18
 2.440000e+05     1.215272e-18
 2.460000e+05     1.245128e-18
 2.480000e+05     1.276921e-18
 2.500000e+05     1.309524e-18
 2.520000e+05     1.341958e-18
 2.540000e+05     1.375000e-18
 2.560000e+05     1.409639e-18
 2.580000e+05     1.446384e-18
 2.600000e+05     1.484438e-18
 2.620000e+05     1.521880e-18
 2.640000e+05     1.559594e-18
 2.660000e+05     1.598787e-18
 2.680000e+05     1.639598e-18
 2.700000e+05     1.681093e-18
 2.720000e+05     1.722852e-18
 2.740000e+05     1.765478e-18
 2.760000e+05     1.809431e-18
 2.780000e+05     1.855311e-18
 2.800000e+05     1.902352e-18
 2.820000e+05     1.949932e-18
 2.840000e+05     1.998209e-18
 2.860000e+05     2.046853e-18
 2.880000e+05     2.096217e-18
 2.900000e+05     2.146858e-18
 2.920000e+05     2.197740e-18
 2.940000e+05     2.249851e-18
 2.960000e+05     2.303663e-18
 2.980000e+05     2.358215e-18
 3.000000e+05     2.412657e-18
 3.020000e+05     2.468404e-18
 3.040000e+05     2.524729e-18
 3.060000e+05     2.582337e-18
 3.080000e+05     2.641070e-18
 3.100000e+05     2.700444e-18
 3.120000e+05     2.759444e-18
 3.140000e+05     2.819493e-18
 3.160000e+05     2.881802e-18
 3.180000e+05     2.944527e-18
 3.200000e+05     3.009261e-18
 3.220000e+05     3.075193e-18
 3.240000e+05     3.142011e-18
 3.260000e+05     3.210671e-18
 3.280000e+05     3.280056e-18
 3.300000e+05     3.352445e-18
 3.320000e+05     3.424811e-18
 3.340000e+05     3.503596e-18
 3.360000e+05     3.587583e-18
 3.380000e+05     3.668325e-18
 3.400000e+05     3.742884e-18
 3.420000e+05     3.817991e-18
 3.440000e+05     3.896964e-18
 3.460000e+05     3.976948e-18
 3.480000e+05     4.065356e-18
 3.500000e+05     4.156701e-18
 3.520000e+05     4.235934e-18
 3.540000e+05     4.312998e-18
 3.560000e+05     4.389927e-18
 3.580000e+05     4.463974e-18
 3.600000e+05     4.541574e-18
 3.620000e+05     4.622344e-18
 3.640000e+05     4.697052e-18
 3.660000e+05     4.774244e-18
 3.680000e+05     4.854081e-18
 3.700000e+05     4.933332e-18
 3.720000e+05     5.014170e-18
 3.740000e+05     5.095889e-18
 3.760000e+05     5.178204e-18
 3.780000e+05     5.261100e-18
 3.800000e+05     5.342838e-18
 3.820000e+05     5.426961e-18
 3.840000e+05     5.513906e-18
 3.860000e+05     5.599971e-18
 3.880000e+05     5.687486e-18
 3.900000e+05     5.776100e-18
 3.920000e+05     5.864007e-18
 4.320000e+05     7.767016e-18
 4.760000e+05     1.011987e-17
 5.250000e+05     1.296725e-17
 5.790000e+05     1.622916e-17
 6.390000e+05     1.979338e-17
 7.040000e+05     2.333913e-17
 7.760000e+05     2.662591e-17
 8.560000e+05     2.931422e-17
 9.430000e+05     3.111187e-17
 1.040000e+06     3.192731e-17
 1.147000e+06     3.173284e-17
 1.264000e+06     3.063713e-17
 1.394000e+06     2.878512e-17
 1.537000e+06     2.640114e-17
 1.694000e+06     2.370054e-17
 1.868000e+06     2.085192e-17
 2.059000e+06     1.804448e-17
 2.270000e+06     1.538202e-17
 2.503000e+06     1.294872e-17
 2.760000e+06     1.079169e-17
 3.043000e+06     8.927984e-18
 3.354000e+06     7.349949e-18
 3.698000e+06     6.025246e-18
