## EBL from Khaire & Srianand 2018; Q19 Model with alpha=-1.9 
## Column1:wavelength (Angstrom);  Column2:EBL specific intensity J_nu (erg/s/cm^2/Hz/Sr)
## ===========================================================================================
 1.000000e-08     9.549825e-37
 1.122019e-08     1.389620e-36
 1.258925e-08     1.996261e-36
 1.412538e-08     2.817274e-36
 1.584893e-08     3.901970e-36
 1.778279e-08     5.307425e-36
 1.995263e-08     7.099308e-36
 2.238721e-08     9.352869e-36
 2.511887e-08     1.215427e-35
 2.818382e-08     1.560201e-35
 3.162278e-08     1.980895e-35
 3.548135e-08     2.490437e-35
 3.981071e-08     3.103679e-35
 4.466837e-08     3.837720e-35
 5.011870e-08     4.712245e-35
 5.623413e-08     5.750001e-35
 6.309576e-08     6.977243e-35
 7.079456e-08     8.424330e-35
 7.943284e-08     1.012644e-34
 8.912505e-08     1.212423e-34
 1.000000e-07     1.446490e-34
 1.122019e-07     1.720305e-34
 1.258925e-07     2.040191e-34
 1.412538e-07     2.413492e-34
 1.584892e-07     2.848699e-34
 1.778279e-07     3.355679e-34
 1.995263e-07     3.945847e-34
 2.238721e-07     4.632434e-34
 2.511887e-07     5.430794e-34
 2.818382e-07     6.358698e-34
 3.162278e-07     7.436770e-34
 3.548136e-07     8.688892e-34
 3.981071e-07     1.014273e-33
 4.466837e-07     1.183040e-33
 5.011870e-07     1.378905e-33
 5.623413e-07     1.606180e-33
 6.309576e-07     1.869858e-33
 7.079456e-07     2.175723e-33
 7.943284e-07     2.530486e-33
 8.912505e-07     2.941913e-33
 1.000000e-06     3.419018e-33
 1.122019e-06     3.972232e-33
 1.258925e-06     4.613643e-33
 1.412538e-06     5.357281e-33
 1.584893e-06     6.219370e-33
 1.778279e-06     7.218738e-33
 1.995263e-06     8.377199e-33
 2.238721e-06     9.720007e-33
 2.511887e-06     1.127646e-32
 2.818382e-06     1.308048e-32
 3.162278e-06     1.517142e-32
 3.548136e-06     1.759482e-32
 3.981071e-06     2.040346e-32
 4.466837e-06     2.365858e-32
 5.011870e-06     2.743103e-32
 5.623413e-06     3.180303e-32
 6.309576e-06     3.686975e-32
 7.079456e-06     4.274147e-32
 7.943284e-06     4.954614e-32
 8.912505e-06     5.743175e-32
 1.000000e-05     6.657014e-32
 1.122019e-05     7.716015e-32
 1.258925e-05     8.943213e-32
 1.412538e-05     1.036535e-31
 1.584893e-05     1.201334e-31
 1.778279e-05     1.392307e-31
 1.995263e-05     1.613612e-31
 2.238721e-05     1.870061e-31
 2.511887e-05     2.167237e-31
 2.818382e-05     2.511604e-31
 3.162278e-05     2.910660e-31
 3.548135e-05     3.373085e-31
 3.981071e-05     3.908938e-31
 4.466837e-05     4.529887e-31
 5.011870e-05     5.249430e-31
 5.623413e-05     6.083239e-31
 6.309577e-05     7.049449e-31
 7.079457e-05     8.169068e-31
 7.943284e-05     9.466478e-31
 8.912505e-05     1.096989e-30
 1.000000e-04     1.271202e-30
 1.122018e-04     1.473077e-30
 1.258926e-04     1.706865e-30
 1.412538e-04     1.973804e-30
 1.584893e-04     2.280636e-30
 1.778279e-04     2.635131e-30
 1.995262e-04     3.046070e-30
 2.238722e-04     3.523514e-30
 2.511887e-04     4.079114e-30
 2.818383e-04     4.726492e-30
 3.162278e-04     5.481646e-30
 3.548134e-04     6.363415e-30
 3.981073e-04     7.394049e-30
 4.466837e-04     8.599832e-30
 5.011873e-04     1.001188e-29
 5.623413e-04     1.166701e-29
 6.309572e-04     1.360889e-29
 7.079460e-04     1.588930e-29
 7.943284e-04     1.856962e-29
 8.912510e-04     2.172278e-29
 1.000000e-03     2.543544e-29
 1.122018e-03     2.981056e-29
 1.258926e-03     3.497072e-29
 1.412538e-03     4.106162e-29
 1.584893e-03     4.825684e-29
 1.778279e-03     5.676321e-29
 1.995262e-03     6.682717e-29
 2.238722e-03     7.874258e-29
 2.511887e-03     9.285982e-29
 2.818383e-03     1.095973e-28
 3.162278e-03     1.294542e-28
 3.548133e-03     1.530268e-28
 3.981073e-03     1.810278e-28
 4.466837e-03     2.143083e-28
 5.011873e-03     2.538867e-28
 5.623413e-03     3.009819e-28
 6.309573e-03     3.570569e-28
 7.079460e-03     4.238741e-28
 7.943284e-03     5.035684e-28
 8.912510e-03     5.987474e-28
 1.000000e-02     7.126219e-28
 1.122019e-02     8.491726e-28
 1.258925e-02     1.013349e-27
 1.412538e-02     1.211310e-27
 1.584894e-02     1.450669e-27
 1.778279e-02     1.740769e-27
 1.995263e-02     2.092962e-27
 2.238721e-02     2.520884e-27
 2.511887e-02     3.040781e-27
 2.818385e-02     3.671831e-27
 3.162277e-02     4.436551e-27
 3.548136e-02     5.361328e-27
 3.981071e-02     6.476956e-27
 4.466837e-02     7.819521e-27
 5.011876e-02     9.431271e-27
 5.623413e-02     1.136184e-26
 6.309576e-02     1.366981e-26
 7.079456e-02     1.642432e-26
 7.943284e-02     1.970741e-26
 8.912515e-02     2.361644e-26
 1.000000e-01     2.826719e-26
 1.122019e-01     3.379999e-26
 1.258925e-01     4.026486e-26
 1.412538e-01     4.753519e-26
 1.584894e-01     5.549422e-26
 1.778279e-01     6.403847e-26
 1.995263e-01     7.307757e-26
 2.238721e-01     8.253238e-26
 2.511887e-01     9.233435e-26
 2.818385e-01     1.024241e-25
 3.162278e-01     1.127507e-25
 3.548135e-01     1.232719e-25
 3.981071e-01     1.339529e-25
 4.466837e-01     1.447666e-25
 5.011876e-01     1.556922e-25
 5.623413e-01     1.667150e-25
 6.309576e-01     1.778259e-25
 7.079456e-01     1.890197e-25
 7.943284e-01     2.002956e-25
 8.912515e-01     2.116552e-25
 1.000000e+00     2.231021e-25
 1.122019e+00     2.346420e-25
 1.258925e+00     2.462810e-25
 1.412538e+00     2.580258e-25
 1.584894e+00     2.698829e-25
 1.778279e+00     2.818587e-25
 1.995263e+00     2.939591e-25
 2.238721e+00     3.061896e-25
 2.511887e+00     3.185552e-25
 2.818385e+00     3.310614e-25
 3.162278e+00     3.437144e-25
 3.548136e+00     3.565228e-25
 3.981071e+00     3.694979e-25
 4.466837e+00     3.826569e-25
 5.011876e+00     3.960238e-25
 5.623413e+00     4.096326e-25
 6.309576e+00     4.233989e-25
 7.079456e+00     4.350250e-25
 7.943284e+00     4.457413e-25
 8.912516e+00     4.574589e-25
 1.000000e+01     4.729142e-25
 1.122019e+01     4.939314e-25
 1.258925e+01     5.222165e-25
 1.412538e+01     5.595377e-25
 1.584894e+01     6.078331e-25
 1.778279e+01     6.692586e-25
 1.995263e+01     7.461615e-25
 2.238721e+01     8.409638e-25
 2.511887e+01     9.559039e-25
 2.818385e+01     1.093016e-24
 3.162278e+01     1.252915e-24
 3.548135e+01     1.428641e-24
 3.981071e+01     1.628934e-24
 4.466837e+01     1.863949e-24
 5.011876e+01     2.114357e-24
 5.623413e+01     2.368300e-24
 6.309576e+01     2.645204e-24
 7.079456e+01     2.956962e-24
 7.943284e+01     3.304463e-24
 8.912515e+01     3.710293e-24
 1.000000e+02     4.189476e-24
 1.120000e+02     4.723589e-24
 1.250000e+02     5.295398e-24
 1.400000e+02     5.935964e-24
 1.550000e+02     6.537514e-24
 1.650000e+02     6.915016e-24
 1.750000e+02     7.276606e-24
 1.850000e+02     7.620373e-24
 1.900000e+02     7.795994e-24
 1.950000e+02     7.978696e-24
 2.000000e+02     8.181189e-24
 2.050000e+02     8.456847e-24
 2.100000e+02     8.888363e-24
 2.150000e+02     9.662027e-24
 2.180000e+02     1.042830e-23
 2.210000e+02     1.154426e-23
 2.240000e+02     1.322326e-23
 2.260000e+02     1.477949e-23
 2.270000e+02     1.571838e-23
 2.275000e+02     1.623114e-23
 2.278400e+02     1.660756e-23
 2.380000e+02     2.327459e-23
 2.500000e+02     3.019919e-23
 2.700000e+02     3.979794e-23
 2.900000e+02     4.877231e-23
 3.035000e+02     5.470558e-23
 3.037800e+02     9.562215e-23
 3.045000e+02     9.532759e-23
 3.060000e+02     9.491385e-23
 3.080000e+02     9.437662e-23
 3.100000e+02     9.388354e-23
 3.120000e+02     9.343425e-23
 3.150000e+02     9.271581e-23
 3.200000e+02     9.161368e-23
 3.250000e+02     9.092207e-23
 3.300000e+02     9.027284e-23
 3.400000e+02     8.918635e-23
 3.600000e+02     8.969623e-23
 3.800000e+02     9.229257e-23
 4.050000e+02     9.798982e-23
 4.250000e+02     1.041626e-22
 4.500000e+02     1.130849e-22
 4.650000e+02     1.190756e-22
 4.750000e+02     1.228985e-22
 4.820000e+02     1.259739e-22
 4.870000e+02     1.278362e-22
 4.910000e+02     1.293882e-22
 4.950000e+02     1.314515e-22
 4.980000e+02     1.326243e-22
 5.000000e+02     1.333570e-22
 5.020000e+02     1.340940e-22
 5.039800e+02     1.348450e-22
 5.100000e+02     1.380068e-22
 5.250000e+02     1.461377e-22
 5.600000e+02     1.639345e-22
 6.000000e+02     1.841507e-22
 6.500000e+02     2.100479e-22
 7.000000e+02     2.381238e-22
 7.500000e+02     2.684072e-22
 8.000000e+02     3.031173e-22
 8.300000e+02     3.268125e-22
 8.600000e+02     3.548874e-22
 8.800000e+02     3.746257e-22
 8.900000e+02     3.854227e-22
 8.960000e+02     3.916309e-22
 9.000000e+02     3.958222e-22
 9.030000e+02     3.998747e-22
 9.060000e+02     4.030794e-22
 9.090000e+02     4.064544e-22
 9.117800e+02     4.096430e-22
 9.300000e+02     6.930708e-22
 9.500000e+02     9.252427e-22
 9.750000e+02     1.426996e-21
 9.900000e+02     1.656208e-21
 1.005000e+03     1.994539e-21
 1.025000e+03     2.511576e-21
 1.045000e+03     2.998473e-21
 1.065000e+03     3.645813e-21
 1.085000e+03     4.369402e-21
 1.105000e+03     5.069463e-21
 1.125000e+03     5.872328e-21
 1.145000e+03     6.614069e-21
 1.165000e+03     7.471261e-21
 1.185000e+03     8.253490e-21
 1.205000e+03     9.079734e-21
 1.215600e+03     9.447159e-21
 1.215670e+03     9.849910e-21
 1.216000e+03     9.860918e-21
 1.218000e+03     9.929912e-21
 1.221000e+03     1.003179e-20
 1.225000e+03     1.015273e-20
 1.230000e+03     1.029445e-20
 1.240000e+03     1.065150e-20
 1.250000e+03     1.105742e-20
 1.265000e+03     1.180504e-20
 1.285000e+03     1.276728e-20
 1.305000e+03     1.379110e-20
 1.325000e+03     1.477330e-20
 1.345000e+03     1.579331e-20
 1.365000e+03     1.681744e-20
 1.385000e+03     1.782512e-20
 1.405000e+03     1.880206e-20
 1.425000e+03     1.978931e-20
 1.442000e+03     2.060520e-20
 1.455000e+03     2.126626e-20
 1.475000e+03     2.221836e-20
 1.517000e+03     2.408971e-20
 1.595000e+03     2.714955e-20
 1.672000e+03     3.002958e-20
 1.745000e+03     3.252807e-20
 1.825000e+03     3.500136e-20
 1.905000e+03     3.707025e-20
 1.984000e+03     3.885836e-20
 2.065000e+03     4.029082e-20
 2.135000e+03     4.126643e-20
 2.215000e+03     4.216131e-20
 2.295000e+03     4.294793e-20
 2.375000e+03     4.379346e-20
 2.455000e+03     4.466459e-20
 2.525000e+03     4.544874e-20
 2.605000e+03     4.639120e-20
 2.685000e+03     4.750879e-20
 2.765000e+03     4.853956e-20
 2.845000e+03     4.936954e-20
 2.950000e+03     5.068725e-20
 3.110000e+03     5.265634e-20
 3.270000e+03     5.439275e-20
 3.430000e+03     5.603512e-20
 3.590000e+03     5.758879e-20
 3.730000e+03     5.918686e-20
 3.890000e+03     6.372830e-20
 4.050000e+03     6.808955e-20
 4.210000e+03     7.500272e-20
 4.370000e+03     8.119557e-20
 4.530000e+03     8.718135e-20
 4.690000e+03     9.300306e-20
 4.850000e+03     9.792832e-20
 5.010000e+03     1.022409e-19
 5.170000e+03     1.063719e-19
 5.330000e+03     1.102792e-19
 5.490000e+03     1.139802e-19
 5.650000e+03     1.175650e-19
 5.810000e+03     1.210555e-19
 5.970000e+03     1.240222e-19
 6.130000e+03     1.269879e-19
 6.290000e+03     1.295507e-19
 6.450000e+03     1.319875e-19
 6.610000e+03     1.341896e-19
 6.770000e+03     1.364062e-19
 6.930000e+03     1.384331e-19
 7.090000e+03     1.402807e-19
 7.250000e+03     1.420026e-19
 7.410000e+03     1.436519e-19
 7.570000e+03     1.452562e-19
 7.730000e+03     1.469635e-19
 7.890000e+03     1.485121e-19
 8.050000e+03     1.499571e-19
 8.210000e+03     1.513860e-19
 8.370000e+03     1.527374e-19
 8.530000e+03     1.540229e-19
 8.690000e+03     1.552794e-19
 8.850000e+03     1.567190e-19
 9.010000e+03     1.580934e-19
 9.170000e+03     1.594293e-19
 9.330000e+03     1.610217e-19
 9.490000e+03     1.624084e-19
 9.650000e+03     1.638138e-19
 9.810000e+03     1.651049e-19
 9.970000e+03     1.665205e-19
 1.050000e+04     1.702134e-19
 1.150000e+04     1.745311e-19
 1.250000e+04     1.776780e-19
 1.350000e+04     1.798504e-19
 1.450000e+04     1.817993e-19
 1.550000e+04     1.843586e-19
 1.650000e+04     1.863565e-19
 1.750000e+04     1.864286e-19
 1.850000e+04     1.845429e-19
 1.950000e+04     1.810601e-19
 2.050000e+04     1.769207e-19
 2.150000e+04     1.723735e-19
 2.250000e+04     1.673325e-19
 2.350000e+04     1.611624e-19
 2.450000e+04     1.539056e-19
 2.550000e+04     1.476326e-19
 2.650000e+04     1.415308e-19
 2.750000e+04     1.362642e-19
 2.850000e+04     1.314413e-19
 2.950000e+04     1.268974e-19
 3.050000e+04     1.225537e-19
 3.150000e+04     1.183713e-19
 3.250000e+04     1.143079e-19
 3.350000e+04     1.103546e-19
 3.450000e+04     1.065284e-19
 3.550000e+04     1.028680e-19
 3.650000e+04     9.935425e-20
 3.750000e+04     9.598161e-20
 3.850000e+04     9.277332e-20
 3.950000e+04     8.991763e-20
 4.050000e+04     8.734036e-20
 4.150000e+04     8.458913e-20
 4.250000e+04     8.170335e-20
 4.350000e+04     7.880286e-20
 4.450000e+04     7.594736e-20
 4.550000e+04     7.327715e-20
 4.650000e+04     7.083808e-20
 4.750000e+04     6.864265e-20
 4.850000e+04     6.673988e-20
 4.950000e+04     6.520616e-20
 5.050000e+04     6.410861e-20
 5.150000e+04     6.348102e-20
 5.250000e+04     6.333833e-20
 5.350000e+04     6.369805e-20
 5.450000e+04     6.446206e-20
 5.550000e+04     6.564515e-20
 5.650000e+04     6.744863e-20
 5.750000e+04     6.992992e-20
 5.850000e+04     7.184662e-20
 5.950000e+04     7.341563e-20
 6.050000e+04     7.649835e-20
 6.150000e+04     8.346802e-20
 6.250000e+04     1.003901e-19
 6.350000e+04     1.123256e-19
 6.450000e+04     1.172721e-19
 6.550000e+04     1.212271e-19
 6.650010e+04     1.236361e-19
 6.750010e+04     1.271031e-19
 6.850010e+04     1.293944e-19
 6.950010e+04     1.335726e-19
 7.020000e+04     1.378326e-19
 7.100000e+04     1.428419e-19
 7.180000e+04     1.476263e-19
 7.260000e+04     1.521105e-19
 7.340000e+04     1.588492e-19
 7.420000e+04     1.685184e-19
 7.500000e+04     1.816569e-19
 7.580000e+04     1.983250e-19
 7.660000e+04     2.167018e-19
 7.740000e+04     2.343583e-19
 7.820000e+04     2.509407e-19
 7.900000e+04     2.654870e-19
 7.980000e+04     2.769385e-19
 8.060000e+04     2.849760e-19
 8.140000e+04     2.900508e-19
 8.220000e+04     2.938193e-19
 8.300000e+04     2.962967e-19
 8.380000e+04     2.982350e-19
 8.460000e+04     3.002971e-19
 8.540000e+04     3.027658e-19
 8.620000e+04     3.056699e-19
 8.700000e+04     3.078869e-19
 8.780000e+04     3.076765e-19
 8.860000e+04     3.054356e-19
 8.940000e+04     3.025932e-19
 9.020000e+04     2.982709e-19
 9.100000e+04     2.939931e-19
 9.180000e+04     2.895624e-19
 9.260000e+04     2.847596e-19
 9.340000e+04     2.801693e-19
 9.420000e+04     2.753583e-19
 9.500000e+04     2.708326e-19
 9.580000e+04     2.667431e-19
 9.660000e+04     2.632856e-19
 9.740000e+04     2.600967e-19
 9.820000e+04     2.564086e-19
 9.900000e+04     2.526436e-19
 9.980000e+04     2.486988e-19
 1.006000e+05     2.450946e-19
 1.020000e+05     2.396897e-19
 1.040000e+05     2.323029e-19
 1.060000e+05     2.283429e-19
 1.080000e+05     2.263398e-19
 1.100000e+05     2.245909e-19
 1.120000e+05     2.346385e-19
 1.140000e+05     2.579905e-19
 1.160000e+05     2.655841e-19
 1.180000e+05     2.716779e-19
 1.200000e+05     2.790900e-19
 1.220000e+05     2.896497e-19
 1.240000e+05     3.027497e-19
 1.260000e+05     3.211059e-19
 1.280000e+05     3.498255e-19
 1.300000e+05     3.762636e-19
 1.320000e+05     3.859611e-19
 1.340000e+05     3.989814e-19
 1.360000e+05     4.074620e-19
 1.380000e+05     4.193936e-19
 1.400000e+05     4.262259e-19
 1.420000e+05     4.378911e-19
 1.440000e+05     4.453517e-19
 1.460000e+05     4.553420e-19
 1.480000e+05     4.625258e-19
 1.500000e+05     4.714996e-19
 1.520000e+05     4.784349e-19
 1.540000e+05     4.857939e-19
 1.560000e+05     4.953300e-19
 1.580000e+05     5.031738e-19
 1.600000e+05     5.099546e-19
 1.620000e+05     5.157097e-19
 1.640000e+05     5.251983e-19
 1.660000e+05     5.366037e-19
 1.680000e+05     5.476931e-19
 1.700000e+05     5.592976e-19
 1.720000e+05     5.743590e-19
 1.740000e+05     5.865987e-19
 1.760000e+05     5.951254e-19
 1.780000e+05     6.046738e-19
 1.800000e+05     6.130017e-19
 1.820000e+05     6.206543e-19
 1.840000e+05     6.293104e-19
 1.860000e+05     6.388118e-19
 1.880000e+05     6.547862e-19
 1.900000e+05     6.673821e-19
 1.920000e+05     6.797126e-19
 1.940000e+05     6.927193e-19
 1.960000e+05     7.085219e-19
 1.980000e+05     7.252303e-19
 2.000000e+05     7.426931e-19
 2.020000e+05     7.623947e-19
 2.040000e+05     7.832899e-19
 2.060000e+05     8.036512e-19
 2.080000e+05     8.252706e-19
 2.100000e+05     8.486742e-19
 2.120000e+05     8.719791e-19
 2.140000e+05     8.959265e-19
 2.160000e+05     9.225305e-19
 2.180000e+05     9.499081e-19
 2.200000e+05     9.768345e-19
 2.220000e+05     1.004786e-18
 2.240000e+05     1.035244e-18
 2.260000e+05     1.065746e-18
 2.280000e+05     1.095845e-18
 2.300000e+05     1.127663e-18
 2.320000e+05     1.161951e-18
 2.340000e+05     1.197170e-18
 2.360000e+05     1.232069e-18
 2.380000e+05     1.268163e-18
 2.400000e+05     1.307076e-18
 2.420000e+05     1.347082e-18
 2.440000e+05     1.386915e-18
 2.460000e+05     1.427836e-18
 2.480000e+05     1.471081e-18
 2.500000e+05     1.515858e-18
 2.520000e+05     1.560238e-18
 2.540000e+05     1.604832e-18
 2.560000e+05     1.652461e-18
 2.580000e+05     1.703990e-18
 2.600000e+05     1.757667e-18
 2.620000e+05     1.810640e-18
 2.640000e+05     1.864428e-18
 2.660000e+05     1.920985e-18
 2.680000e+05     1.980309e-18
 2.700000e+05     2.040990e-18
 2.720000e+05     2.101934e-18
 2.740000e+05     2.163317e-18
 2.760000e+05     2.226771e-18
 2.780000e+05     2.293543e-18
 2.800000e+05     2.363208e-18
 2.820000e+05     2.434832e-18
 2.840000e+05     2.506105e-18
 2.860000e+05     2.577033e-18
 2.880000e+05     2.649468e-18
 2.900000e+05     2.724991e-18
 2.920000e+05     2.801837e-18
 2.940000e+05     2.880975e-18
 2.960000e+05     2.961794e-18
 2.980000e+05     3.042961e-18
 3.000000e+05     3.123558e-18
 3.020000e+05     3.207726e-18
 3.040000e+05     3.293307e-18
 3.060000e+05     3.379952e-18
 3.080000e+05     3.468308e-18
 3.100000e+05     3.557173e-18
 3.120000e+05     3.645590e-18
 3.140000e+05     3.736178e-18
 3.160000e+05     3.829979e-18
 3.180000e+05     3.924355e-18
 3.200000e+05     4.021845e-18
 3.220000e+05     4.121813e-18
 3.240000e+05     4.221403e-18
 3.260000e+05     4.323980e-18
 3.280000e+05     4.426064e-18
 3.300000e+05     4.528905e-18
 3.320000e+05     4.634168e-18
 3.340000e+05     4.749718e-18
 3.360000e+05     4.872049e-18
 3.380000e+05     4.987609e-18
 3.400000e+05     5.093334e-18
 3.420000e+05     5.199280e-18
 3.440000e+05     5.307042e-18
 3.460000e+05     5.416708e-18
 3.480000e+05     5.539268e-18
 3.500000e+05     5.669450e-18
 3.520000e+05     5.788496e-18
 3.540000e+05     5.898560e-18
 3.560000e+05     6.009546e-18
 3.580000e+05     6.117481e-18
 3.600000e+05     6.224703e-18
 3.620000e+05     6.336450e-18
 3.640000e+05     6.447182e-18
 3.660000e+05     6.555954e-18
 3.680000e+05     6.668763e-18
 3.700000e+05     6.782172e-18
 3.720000e+05     6.895118e-18
 3.740000e+05     7.010132e-18
 3.760000e+05     7.125416e-18
 3.780000e+05     7.241910e-18
 3.800000e+05     7.360868e-18
 3.820000e+05     7.480420e-18
 3.840000e+05     7.599826e-18
 3.860000e+05     7.720667e-18
 3.880000e+05     7.842870e-18
 3.900000e+05     7.966484e-18
 3.920000e+05     8.091128e-18
 4.320000e+05     1.072237e-17
 4.760000e+05     1.384284e-17
 5.250000e+05     1.737246e-17
 5.790000e+05     2.107190e-17
 6.390000e+05     2.472721e-17
 7.040000e+05     2.789353e-17
 7.760000e+05     3.031485e-17
 8.560000e+05     3.178435e-17
 9.430000e+05     3.221008e-17
 1.040000e+06     3.164933e-17
 1.147000e+06     3.023300e-17
 1.264000e+06     2.817817e-17
 1.394000e+06     2.567552e-17
 1.537000e+06     2.296583e-17
 1.694000e+06     2.023208e-17
 1.868000e+06     1.759172e-17
 2.059000e+06     1.516219e-17
 2.270000e+06     1.297894e-17
 2.503000e+06     1.106081e-17
 2.760000e+06     9.400663e-18
 3.043000e+06     7.976172e-18
 3.354000e+06     6.756791e-18
 3.698000e+06     5.704225e-18
