## EBL from Khaire & Srianand 2018; Q17 Model with alpha=-1.7 
## Column1:wavelength (Angstrom);  Column2:EBL specific intensity J_nu (erg/s/cm^2/Hz/Sr)
## ===========================================================================================
 1.000000e-08     4.622210e-38
 1.122019e-08     6.747368e-38
 1.258925e-08     9.822517e-38
 1.412538e-08     1.422201e-37
 1.584893e-08     2.043122e-37
 1.778279e-08     2.906202e-37
 1.995263e-08     4.086433e-37
 2.238721e-08     5.673434e-37
 2.511887e-08     7.772266e-37
 2.818382e-08     1.050430e-36
 3.162278e-08     1.400879e-36
 3.548135e-08     1.844482e-36
 3.981071e-08     2.399416e-36
 4.466837e-08     3.086476e-36
 5.011870e-08     3.929451e-36
 5.623413e-08     4.955647e-36
 6.309576e-08     6.196387e-36
 7.079456e-08     7.687679e-36
 7.943284e-08     9.471022e-36
 8.912505e-08     1.159419e-35
 1.000000e-07     1.411240e-35
 1.122019e-07     1.708936e-35
 1.258925e-07     2.059874e-35
 1.412538e-07     2.472586e-35
 1.584892e-07     2.956933e-35
 1.778279e-07     3.524358e-35
 1.995263e-07     4.188098e-35
 2.238721e-07     4.963489e-35
 2.511887e-07     5.868320e-35
 2.818382e-07     6.923184e-35
 3.162278e-07     8.151980e-35
 3.548136e-07     9.582377e-35
 3.981071e-07     1.124643e-34
 4.466837e-07     1.318136e-34
 5.011870e-07     1.543023e-34
 5.623413e-07     1.804301e-34
 6.309576e-07     2.107758e-34
 7.079456e-07     2.460098e-34
 7.943284e-07     2.869102e-34
 8.912505e-07     3.343772e-34
 1.000000e-06     3.894560e-34
 1.122019e-06     4.533561e-34
 1.258925e-06     5.274789e-34
 1.412538e-06     6.134514e-34
 1.584893e-06     7.131551e-34
 1.778279e-06     8.287731e-34
 1.995263e-06     9.628349e-34
 2.238721e-06     1.118269e-33
 2.511887e-06     1.298474e-33
 2.818382e-06     1.507382e-33
 3.162278e-06     1.749558e-33
 3.548136e-06     2.030284e-33
 3.981071e-06     2.355680e-33
 4.466837e-06     2.732848e-33
 5.011870e-06     3.170005e-33
 5.623413e-06     3.676687e-33
 6.309576e-06     4.263932e-33
 7.079456e-06     4.944528e-33
 7.943284e-06     5.733318e-33
 8.912505e-06     6.647463e-33
 1.000000e-05     7.706890e-33
 1.122019e-05     8.934661e-33
 1.258925e-05     1.035750e-32
 1.412538e-05     1.200641e-32
 1.584893e-05     1.391725e-32
 1.778279e-05     1.613166e-32
 1.995263e-05     1.869782e-32
 2.238721e-05     2.167157e-32
 2.511887e-05     2.511767e-32
 2.818382e-05     2.911106e-32
 3.162278e-05     3.373873e-32
 3.548135e-05     3.910135e-32
 3.981071e-05     4.531557e-32
 4.466837e-05     5.251671e-32
 5.011870e-05     6.086133e-32
 5.623413e-05     7.053119e-32
 6.309577e-05     8.173666e-32
 7.079457e-05     9.472138e-32
 7.943284e-05     1.097681e-31
 8.912505e-05     1.272040e-31
 1.000000e-04     1.474086e-31
 1.122018e-04     1.708214e-31
 1.258926e-04     1.979516e-31
 1.412538e-04     2.293540e-31
 1.584893e-04     2.656712e-31
 1.778279e-04     3.076475e-31
 1.995262e-04     3.561409e-31
 2.238722e-04     4.121535e-31
 2.511887e-04     4.768698e-31
 2.818383e-04     5.517046e-31
 3.162278e-04     6.383511e-31
 3.548134e-04     7.388299e-31
 3.981073e-04     8.555417e-31
 4.466837e-04     9.913248e-31
 5.011873e-04     1.149528e-30
 5.623413e-04     1.334095e-30
 6.309572e-04     1.549676e-30
 7.079460e-04     1.801762e-30
 7.943284e-04     2.096830e-30
 8.912510e-04     2.442551e-30
 1.000000e-03     2.848004e-30
 1.122018e-03     3.323952e-30
 1.258926e-03     3.883165e-30
 1.412538e-03     4.540785e-30
 1.584893e-03     5.314810e-30
 1.778279e-03     6.226629e-30
 1.995262e-03     7.301674e-30
 2.238722e-03     8.570205e-30
 2.511887e-03     1.006823e-29
 2.818383e-03     1.183864e-29
 3.162278e-03     1.393257e-29
 3.548133e-03     1.641092e-29
 3.981073e-03     1.934639e-29
 4.466837e-03     2.282567e-29
 5.011873e-03     2.695224e-29
 5.623413e-03     3.184970e-29
 6.309573e-03     3.766575e-29
 7.079460e-03     4.457709e-29
 7.943284e-03     5.279542e-29
 8.912510e-03     6.257509e-29
 1.000000e-02     7.422281e-29
 1.122019e-02     8.811022e-29
 1.258925e-02     1.046896e-28
 1.412538e-02     1.245153e-28
 1.584894e-02     1.482686e-28
 1.778279e-02     1.767897e-28
 1.995263e-02     2.111163e-28
 2.238721e-02     2.525260e-28
 2.511887e-02     3.025882e-28
 2.818385e-02     3.632185e-28
 3.162277e-02     4.367395e-28
 3.548136e-02     5.259526e-28
 3.981071e-02     6.342039e-28
 4.466837e-02     7.654779e-28
 5.011876e-02     9.244829e-28
 5.623413e-02     1.116764e-27
 6.309576e-02     1.348845e-27
 7.079456e-02     1.628370e-27
 7.943284e-02     1.964323e-27
 8.912515e-02     2.367244e-27
 1.000000e-01     2.849536e-27
 1.122019e-01     3.425843e-27
 1.258925e-01     4.112735e-27
 1.412538e-01     4.926598e-27
 1.584894e-01     5.883196e-27
 1.778279e-01     6.996286e-27
 1.995263e-01     8.275895e-27
 2.238721e-01     9.726715e-27
 2.511887e-01     1.134736e-26
 2.818385e-01     1.313046e-26
 3.162278e-01     1.506380e-26
 3.548135e-01     1.713206e-26
 3.981071e-01     1.931857e-26
 4.466837e-01     2.160684e-26
 5.011876e-01     2.398157e-26
 5.623413e-01     2.642924e-26
 6.309576e-01     2.893842e-26
 7.079456e-01     3.149965e-26
 7.943284e-01     3.410548e-26
 8.912515e-01     3.675018e-26
 1.000000e+00     3.942962e-26
 1.122019e+00     4.214113e-26
 1.258925e+00     4.488317e-26
 1.412538e+00     4.765535e-26
 1.584894e+00     5.045803e-26
 1.778279e+00     5.329233e-26
 1.995263e+00     5.615994e-26
 2.238721e+00     5.906293e-26
 2.511887e+00     6.200378e-26
 2.818385e+00     6.498509e-26
 3.162278e+00     6.800954e-26
 3.548136e+00     7.107575e-26
 3.981071e+00     7.418958e-26
 4.466837e+00     7.736465e-26
 5.011876e+00     8.062547e-26
 5.623413e+00     8.401328e-26
 6.309576e+00     8.759107e-26
 7.079456e+00     9.142481e-26
 7.943284e+00     9.560913e-26
 8.912516e+00     1.002651e-25
 1.000000e+01     1.055397e-25
 1.122019e+01     1.116158e-25
 1.258925e+01     1.187252e-25
 1.412538e+01     1.271626e-25
 1.584894e+01     1.372955e-25
 1.778279e+01     1.495695e-25
 1.995263e+01     1.645116e-25
 2.238721e+01     1.827303e-25
 2.511887e+01     2.049150e-25
 2.818385e+01     2.318283e-25
 3.162278e+01     2.642872e-25
 3.548135e+01     3.031252e-25
 3.981071e+01     3.491234e-25
 4.466837e+01     4.029138e-25
 5.011876e+01     4.648520e-25
 5.623413e+01     5.348883e-25
 6.309576e+01     6.124389e-25
 7.079456e+01     6.962356e-25
 7.943284e+01     7.845702e-25
 8.912515e+01     8.793748e-25
 1.000000e+02     9.825007e-25
 1.120000e+02     1.094612e-24
 1.250000e+02     1.214863e-24
 1.400000e+02     1.352808e-24
 1.550000e+02     1.489750e-24
 1.650000e+02     1.580216e-24
 1.750000e+02     1.667965e-24
 1.850000e+02     1.754024e-24
 1.900000e+02     1.795431e-24
 1.950000e+02     1.836722e-24
 2.000000e+02     1.878397e-24
 2.050000e+02     1.918959e-24
 2.100000e+02     1.963527e-24
 2.150000e+02     2.014835e-24
 2.180000e+02     2.054276e-24
 2.210000e+02     2.101523e-24
 2.240000e+02     2.163888e-24
 2.260000e+02     2.216636e-24
 2.270000e+02     2.247742e-24
 2.275000e+02     2.264515e-24
 2.278400e+02     2.276913e-24
 2.380000e+02     2.514695e-24
 2.500000e+02     2.794087e-24
 2.700000e+02     3.348840e-24
 2.900000e+02     3.938209e-24
 3.035000e+02     4.380120e-24
 3.037800e+02     4.998742e-24
 3.045000e+02     5.028305e-24
 3.060000e+02     5.090338e-24
 3.080000e+02     5.173114e-24
 3.100000e+02     5.255980e-24
 3.120000e+02     5.338953e-24
 3.150000e+02     5.463001e-24
 3.200000e+02     5.668423e-24
 3.250000e+02     5.874915e-24
 3.300000e+02     6.085728e-24
 3.400000e+02     6.548766e-24
 3.600000e+02     7.467352e-24
 3.800000e+02     8.403251e-24
 4.050000e+02     9.640783e-24
 4.250000e+02     1.067104e-23
 4.500000e+02     1.193945e-23
 4.650000e+02     1.271069e-23
 4.750000e+02     1.322343e-23
 4.820000e+02     1.358385e-23
 4.870000e+02     1.386655e-23
 4.910000e+02     1.406595e-23
 4.950000e+02     1.426392e-23
 4.980000e+02     1.441242e-23
 5.000000e+02     1.451144e-23
 5.020000e+02     1.461049e-23
 5.039800e+02     1.470995e-23
 5.100000e+02     1.501923e-23
 5.250000e+02     1.578625e-23
 5.600000e+02     1.761993e-23
 6.000000e+02     1.966738e-23
 6.500000e+02     2.213134e-23
 7.000000e+02     2.460527e-23
 7.500000e+02     2.705192e-23
 8.000000e+02     2.960764e-23
 8.300000e+02     3.123933e-23
 8.600000e+02     3.295461e-23
 8.800000e+02     3.417314e-23
 8.900000e+02     3.480972e-23
 8.960000e+02     3.519697e-23
 9.000000e+02     3.545781e-23
 9.030000e+02     3.565559e-23
 9.060000e+02     3.589343e-23
 9.090000e+02     3.609403e-23
 9.117800e+02     3.628051e-23
 9.300000e+02     5.349182e-23
 9.500000e+02     6.390979e-23
 9.750000e+02     7.764040e-23
 9.900000e+02     8.871159e-23
 1.005000e+03     1.062359e-22
 1.025000e+03     1.334257e-22
 1.045000e+03     1.563943e-22
 1.065000e+03     1.829193e-22
 1.085000e+03     2.181395e-22
 1.105000e+03     2.513902e-22
 1.125000e+03     2.903369e-22
 1.145000e+03     3.246910e-22
 1.165000e+03     3.619738e-22
 1.185000e+03     4.017352e-22
 1.205000e+03     4.405893e-22
 1.215600e+03     4.601288e-22
 1.215670e+03     4.657008e-22
 1.216000e+03     4.662791e-22
 1.218000e+03     4.699664e-22
 1.221000e+03     4.755570e-22
 1.225000e+03     4.830907e-22
 1.230000e+03     4.932233e-22
 1.240000e+03     5.159860e-22
 1.250000e+03     5.390878e-22
 1.265000e+03     5.796649e-22
 1.285000e+03     6.301874e-22
 1.305000e+03     6.834801e-22
 1.325000e+03     7.413606e-22
 1.345000e+03     7.993081e-22
 1.365000e+03     8.559315e-22
 1.385000e+03     9.171445e-22
 1.405000e+03     9.769520e-22
 1.425000e+03     1.039001e-21
 1.442000e+03     1.091001e-21
 1.455000e+03     1.133464e-21
 1.475000e+03     1.197846e-21
 1.517000e+03     1.327880e-21
 1.595000e+03     1.573247e-21
 1.672000e+03     1.818992e-21
 1.745000e+03     2.053372e-21
 1.825000e+03     2.313135e-21
 1.905000e+03     2.563741e-21
 1.984000e+03     2.808121e-21
 2.065000e+03     3.047809e-21
 2.135000e+03     3.244518e-21
 2.215000e+03     3.462817e-21
 2.295000e+03     3.681251e-21
 2.375000e+03     3.899288e-21
 2.455000e+03     4.123181e-21
 2.525000e+03     4.318543e-21
 2.605000e+03     4.548884e-21
 2.685000e+03     4.798316e-21
 2.765000e+03     5.049321e-21
 2.845000e+03     5.283704e-21
 2.950000e+03     5.619659e-21
 3.110000e+03     6.176406e-21
 3.270000e+03     6.736099e-21
 3.430000e+03     7.320260e-21
 3.590000e+03     7.905469e-21
 3.730000e+03     8.442711e-21
 3.890000e+03     9.218937e-21
 4.050000e+03     1.002811e-20
 4.210000e+03     1.112510e-20
 4.370000e+03     1.227804e-20
 4.530000e+03     1.342740e-20
 4.690000e+03     1.469991e-20
 4.850000e+03     1.597172e-20
 5.010000e+03     1.720428e-20
 5.170000e+03     1.842937e-20
 5.330000e+03     1.972172e-20
 5.490000e+03     2.099148e-20
 5.650000e+03     2.231883e-20
 5.810000e+03     2.367104e-20
 5.970000e+03     2.495997e-20
 6.130000e+03     2.629684e-20
 6.290000e+03     2.758739e-20
 6.450000e+03     2.886236e-20
 6.610000e+03     3.011367e-20
 6.770000e+03     3.137748e-20
 6.930000e+03     3.260133e-20
 7.090000e+03     3.380755e-20
 7.250000e+03     3.498980e-20
 7.410000e+03     3.614209e-20
 7.570000e+03     3.728206e-20
 7.730000e+03     3.842897e-20
 7.890000e+03     3.954036e-20
 8.050000e+03     4.062956e-20
 8.210000e+03     4.170100e-20
 8.370000e+03     4.274930e-20
 8.530000e+03     4.375770e-20
 8.690000e+03     4.475879e-20
 8.850000e+03     4.574861e-20
 9.010000e+03     4.671562e-20
 9.170000e+03     4.765828e-20
 9.330000e+03     4.860900e-20
 9.490000e+03     4.953978e-20
 9.650000e+03     5.043216e-20
 9.810000e+03     5.133106e-20
 9.970000e+03     5.219095e-20
 1.050000e+04     5.491302e-20
 1.150000e+04     5.931560e-20
 1.250000e+04     6.306587e-20
 1.350000e+04     6.618319e-20
 1.450000e+04     6.887561e-20
 1.550000e+04     7.127821e-20
 1.650000e+04     7.340073e-20
 1.750000e+04     7.501174e-20
 1.850000e+04     7.605478e-20
 1.950000e+04     7.661314e-20
 2.050000e+04     7.677964e-20
 2.150000e+04     7.662799e-20
 2.250000e+04     7.600865e-20
 2.350000e+04     7.521831e-20
 2.450000e+04     7.442788e-20
 2.550000e+04     7.357546e-20
 2.650000e+04     7.266834e-20
 2.750000e+04     7.175014e-20
 2.850000e+04     7.085358e-20
 2.950000e+04     6.999957e-20
 3.050000e+04     6.918907e-20
 3.150000e+04     6.845367e-20
 3.250000e+04     6.782347e-20
 3.350000e+04     6.729990e-20
 3.450000e+04     6.688549e-20
 3.550000e+04     6.660704e-20
 3.650000e+04     6.647046e-20
 3.750000e+04     6.639101e-20
 3.850000e+04     6.623947e-20
 3.950000e+04     6.608204e-20
 4.050000e+04     6.601005e-20
 4.150000e+04     6.604105e-20
 4.250000e+04     6.615284e-20
 4.350000e+04     6.630653e-20
 4.450000e+04     6.650593e-20
 4.550000e+04     6.675351e-20
 4.650000e+04     6.704072e-20
 4.750000e+04     6.735865e-20
 4.850000e+04     6.771159e-20
 4.950000e+04     6.811524e-20
 5.050000e+04     6.855788e-20
 5.150000e+04     6.902580e-20
 5.250000e+04     6.951432e-20
 5.350000e+04     6.989840e-20
 5.450000e+04     7.019608e-20
 5.550000e+04     7.055444e-20
 5.650000e+04     7.094572e-20
 5.750000e+04     7.138566e-20
 5.850000e+04     7.187215e-20
 5.950000e+04     7.237016e-20
 6.050000e+04     7.309271e-20
 6.150000e+04     7.483322e-20
 6.250000e+04     7.792137e-20
 6.350000e+04     8.027272e-20
 6.450000e+04     8.165551e-20
 6.550000e+04     8.278470e-20
 6.650010e+04     8.404596e-20
 6.750010e+04     8.521976e-20
 6.850010e+04     8.635531e-20
 6.950010e+04     8.800525e-20
 7.020000e+04     8.936309e-20
 7.100000e+04     9.077800e-20
 7.180000e+04     9.212386e-20
 7.260000e+04     9.354445e-20
 7.340000e+04     9.528441e-20
 7.420000e+04     9.758936e-20
 7.500000e+04     1.004090e-19
 7.580000e+04     1.038737e-19
 7.660000e+04     1.076489e-19
 7.740000e+04     1.112631e-19
 7.820000e+04     1.145996e-19
 7.900000e+04     1.178791e-19
 7.980000e+04     1.210592e-19
 8.060000e+04     1.238280e-19
 8.140000e+04     1.261668e-19
 8.220000e+04     1.281165e-19
 8.300000e+04     1.300099e-19
 8.380000e+04     1.318652e-19
 8.460000e+04     1.338288e-19
 8.540000e+04     1.360398e-19
 8.620000e+04     1.383957e-19
 8.700000e+04     1.407744e-19
 8.780000e+04     1.427361e-19
 8.860000e+04     1.443324e-19
 8.940000e+04     1.456921e-19
 9.020000e+04     1.469165e-19
 9.100000e+04     1.480574e-19
 9.180000e+04     1.490584e-19
 9.260000e+04     1.499456e-19
 9.340000e+04     1.508110e-19
 9.420000e+04     1.516274e-19
 9.500000e+04     1.525078e-19
 9.580000e+04     1.534925e-19
 9.660000e+04     1.546316e-19
 9.740000e+04     1.557738e-19
 9.820000e+04     1.567022e-19
 9.900000e+04     1.575922e-19
 9.980000e+04     1.585205e-19
 1.006000e+05     1.594554e-19
 1.020000e+05     1.610137e-19
 1.040000e+05     1.634279e-19
 1.060000e+05     1.659802e-19
 1.080000e+05     1.687195e-19
 1.100000e+05     1.713913e-19
 1.120000e+05     1.760145e-19
 1.140000e+05     1.829758e-19
 1.160000e+05     1.865801e-19
 1.180000e+05     1.887066e-19
 1.200000e+05     1.911096e-19
 1.220000e+05     1.918068e-19
 1.240000e+05     1.932959e-19
 1.260000e+05     1.952824e-19
 1.280000e+05     1.981000e-19
 1.300000e+05     2.006492e-19
 1.320000e+05     1.996935e-19
 1.340000e+05     1.998997e-19
 1.360000e+05     2.008231e-19
 1.380000e+05     2.016350e-19
 1.400000e+05     2.010353e-19
 1.420000e+05     2.020003e-19
 1.440000e+05     2.027370e-19
 1.460000e+05     2.034909e-19
 1.480000e+05     2.040450e-19
 1.500000e+05     2.041245e-19
 1.520000e+05     2.047572e-19
 1.540000e+05     2.058788e-19
 1.560000e+05     2.079971e-19
 1.580000e+05     2.093033e-19
 1.600000e+05     2.091665e-19
 1.620000e+05     2.101457e-19
 1.640000e+05     2.120894e-19
 1.660000e+05     2.144790e-19
 1.680000e+05     2.164312e-19
 1.700000e+05     2.181648e-19
 1.720000e+05     2.203668e-19
 1.740000e+05     2.224188e-19
 1.760000e+05     2.246354e-19
 1.780000e+05     2.260320e-19
 1.800000e+05     2.271228e-19
 1.820000e+05     2.279135e-19
 1.840000e+05     2.287981e-19
 1.860000e+05     2.298583e-19
 1.880000e+05     2.320318e-19
 1.900000e+05     2.333410e-19
 1.920000e+05     2.343891e-19
 1.940000e+05     2.353593e-19
 1.960000e+05     2.365416e-19
 1.980000e+05     2.378000e-19
 2.000000e+05     2.390993e-19
 2.020000e+05     2.404225e-19
 2.040000e+05     2.413745e-19
 2.060000e+05     2.428302e-19
 2.080000e+05     2.446078e-19
 2.100000e+05     2.462988e-19
 2.120000e+05     2.482259e-19
 2.140000e+05     2.499890e-19
 2.160000e+05     2.520671e-19
 2.180000e+05     2.541802e-19
 2.200000e+05     2.563714e-19
 2.220000e+05     2.587315e-19
 2.240000e+05     2.611620e-19
 2.260000e+05     2.635920e-19
 2.280000e+05     2.661383e-19
 2.300000e+05     2.689090e-19
 2.320000e+05     2.718300e-19
 2.340000e+05     2.746713e-19
 2.360000e+05     2.774552e-19
 2.380000e+05     2.806478e-19
 2.400000e+05     2.838697e-19
 2.420000e+05     2.870022e-19
 2.440000e+05     2.902748e-19
 2.460000e+05     2.936172e-19
 2.480000e+05     2.969560e-19
 2.500000e+05     3.003326e-19
 2.520000e+05     3.037859e-19
 2.540000e+05     3.073341e-19
 2.560000e+05     3.109695e-19
 2.580000e+05     3.147820e-19
 2.600000e+05     3.187946e-19
 2.620000e+05     3.227761e-19
 2.640000e+05     3.266710e-19
 2.660000e+05     3.305777e-19
 2.680000e+05     3.345643e-19
 2.700000e+05     3.386673e-19
 2.720000e+05     3.428552e-19
 2.740000e+05     3.470888e-19
 2.760000e+05     3.514059e-19
 2.780000e+05     3.558456e-19
 2.800000e+05     3.603649e-19
 2.820000e+05     3.650183e-19
 2.840000e+05     3.698250e-19
 2.860000e+05     3.746284e-19
 2.880000e+05     3.794813e-19
 2.900000e+05     3.844304e-19
 2.920000e+05     3.894858e-19
 2.940000e+05     3.946473e-19
 2.960000e+05     3.998978e-19
 2.980000e+05     4.052223e-19
 3.000000e+05     4.106212e-19
 3.020000e+05     4.161092e-19
 3.040000e+05     4.217264e-19
 3.060000e+05     4.274172e-19
 3.080000e+05     4.332593e-19
 3.100000e+05     4.391977e-19
 3.120000e+05     4.451927e-19
 3.140000e+05     4.512688e-19
 3.160000e+05     4.574488e-19
 3.180000e+05     4.637630e-19
 3.200000e+05     4.702268e-19
 3.220000e+05     4.768379e-19
 3.240000e+05     4.835523e-19
 3.260000e+05     4.903699e-19
 3.280000e+05     4.973228e-19
 3.300000e+05     5.044292e-19
 3.320000e+05     5.117392e-19
 3.340000e+05     5.197732e-19
 3.360000e+05     5.289170e-19
 3.380000e+05     5.372098e-19
 3.400000e+05     5.448080e-19
 3.420000e+05     5.524237e-19
 3.440000e+05     5.601250e-19
 3.460000e+05     5.681089e-19
 3.480000e+05     5.778027e-19
 3.500000e+05     5.885212e-19
 3.520000e+05     5.973549e-19
 3.540000e+05     6.055830e-19
 3.560000e+05     6.139491e-19
 3.580000e+05     6.224323e-19
 3.600000e+05     6.310391e-19
 3.620000e+05     6.396618e-19
 3.640000e+05     6.483972e-19
 3.660000e+05     6.571790e-19
 3.680000e+05     6.661939e-19
 3.700000e+05     6.752735e-19
 3.720000e+05     6.844406e-19
 3.740000e+05     6.938561e-19
 3.760000e+05     7.035536e-19
 3.780000e+05     7.123700e-19
 3.800000e+05     7.218453e-19
 3.820000e+05     7.316730e-19
 3.840000e+05     7.415338e-19
 3.860000e+05     7.514749e-19
 3.880000e+05     7.614758e-19
 3.900000e+05     7.712883e-19
 3.920000e+05     7.813594e-19
 4.320000e+05     1.003282e-18
 4.760000e+05     1.286661e-18
 5.250000e+05     1.642391e-18
 5.790000e+05     2.071183e-18
 6.390000e+05     2.583255e-18
 7.040000e+05     3.172514e-18
 7.760000e+05     3.886968e-18
 8.560000e+05     4.772379e-18
 9.430000e+05     5.819253e-18
 1.040000e+06     7.024169e-18
 1.147000e+06     8.305339e-18
 1.264000e+06     9.544908e-18
 1.394000e+06     1.063698e-17
 1.537000e+06     1.145574e-17
 1.694000e+06     1.191900e-17
 1.868000e+06     1.198868e-17
 2.059000e+06     1.167387e-17
 2.270000e+06     1.102326e-17
 2.503000e+06     1.011505e-17
 2.760000e+06     9.041563e-18
 3.043000e+06     7.894597e-18
 3.354000e+06     6.752774e-18
 3.698000e+06     5.666519e-18
