## EBL from Khaire & Srianand 2018; Q17 Model with alpha=-1.7 
## Column1:wavelength (Angstrom);  Column2:EBL specific intensity J_nu (erg/s/cm^2/Hz/Sr)
## ===========================================================================================
 1.000000e-08     1.463889e-37
 1.122019e-08     2.135417e-37
 1.258925e-08     3.101658e-37
 1.412538e-08     4.469171e-37
 1.584893e-08     6.369478e-37
 1.778279e-08     8.960513e-37
 1.995263e-08     1.242772e-36
 2.238721e-08     1.698551e-36
 2.511887e-08     2.287993e-36
 2.818382e-08     3.039207e-36
 3.162278e-08     3.984326e-36
 3.548135e-08     5.160057e-36
 3.981071e-08     6.608414e-36
 4.466837e-08     8.377567e-36
 5.011870e-08     1.052273e-35
 5.623413e-08     1.310741e-35
 6.309576e-08     1.620463e-35
 7.079456e-08     1.989849e-35
 7.943284e-08     2.428614e-35
 8.912505e-08     2.947958e-35
 1.000000e-07     3.560849e-35
 1.122019e-07     4.282271e-35
 1.258925e-07     5.129565e-35
 1.412538e-07     6.122839e-35
 1.584892e-07     7.285339e-35
 1.778279e-07     8.644065e-35
 1.995263e-07     1.023024e-34
 2.238721e-07     1.208006e-34
 2.511887e-07     1.423553e-34
 2.818382e-07     1.674524e-34
 3.162278e-07     1.966561e-34
 3.548136e-07     2.306198e-34
 3.981071e-07     2.701002e-34
 4.466837e-07     3.159758e-34
 5.011870e-07     3.692631e-34
 5.623413e-07     4.311420e-34
 6.309576e-07     5.029785e-34
 7.079456e-07     5.863549e-34
 7.943284e-07     6.831083e-34
 8.912505e-07     7.953630e-34
 1.000000e-06     9.255859e-34
 1.122019e-06     1.076632e-33
 1.258925e-06     1.251810e-33
 1.412538e-06     1.454958e-33
 1.584893e-06     1.690517e-33
 1.778279e-06     1.963640e-33
 1.995263e-06     2.280296e-33
 2.238721e-06     2.647399e-33
 2.511887e-06     3.072967e-33
 2.818382e-06     3.566282e-33
 3.162278e-06     4.138114e-33
 3.548136e-06     4.800933e-33
 3.981071e-06     5.569180e-33
 4.466837e-06     6.459619e-33
 5.011870e-06     7.491635e-33
 5.623413e-06     8.687740e-33
 6.309576e-06     1.007399e-32
 7.079456e-06     1.168055e-32
 7.943284e-06     1.354244e-32
 8.912505e-06     1.570019e-32
 1.000000e-05     1.820081e-32
 1.122019e-05     2.109874e-32
 1.258925e-05     2.445701e-32
 1.412538e-05     2.834883e-32
 1.584893e-05     3.285882e-32
 1.778279e-05     3.808520e-32
 1.995263e-05     4.414175e-32
 2.238721e-05     5.116019e-32
 2.511887e-05     5.929337e-32
 2.818382e-05     6.871818e-32
 3.162278e-05     7.963988e-32
 3.548135e-05     9.229601e-32
 3.981071e-05     1.069619e-31
 4.466837e-05     1.239569e-31
 5.011870e-05     1.436506e-31
 5.623413e-05     1.664717e-31
 6.309577e-05     1.929169e-31
 7.079457e-05     2.235609e-31
 7.943284e-05     2.590712e-31
 8.912505e-05     3.002198e-31
 1.000000e-04     3.479028e-31
 1.122018e-04     4.031568e-31
 1.258926e-04     4.671817e-31
 1.412538e-04     5.411793e-31
 1.584893e-04     6.266066e-31
 1.778279e-04     7.251913e-31
 1.995262e-04     8.389788e-31
 2.238722e-04     9.704201e-31
 2.511887e-04     1.122458e-30
 2.818383e-04     1.298617e-30
 3.162278e-04     1.503085e-30
 3.548134e-04     1.740813e-30
 3.981073e-04     2.017633e-30
 4.466837e-04     2.340411e-30
 5.011873e-04     2.717232e-30
 5.623413e-04     3.157631e-30
 6.309572e-04     3.672868e-30
 7.079460e-04     4.276257e-30
 7.943284e-04     4.983550e-30
 8.912510e-04     5.813416e-30
 1.000000e-03     6.787993e-30
 1.122018e-03     7.933540e-30
 1.258926e-03     9.281261e-30
 1.412538e-03     1.086818e-29
 1.584893e-03     1.273835e-29
 1.778279e-03     1.494416e-29
 1.995262e-03     1.754796e-29
 2.238722e-03     2.062400e-29
 2.511887e-03     2.426066e-29
 2.818383e-03     2.856336e-29
 3.162278e-03     3.365777e-29
 3.548133e-03     3.969378e-29
 3.981073e-03     4.685033e-29
 4.466837e-03     5.534089e-29
 5.011873e-03     6.542056e-29
 5.623413e-03     7.739416e-29
 6.309573e-03     9.162632e-29
 7.079460e-03     1.085540e-28
 7.943284e-03     1.287017e-28
 8.912510e-03     1.527026e-28
 1.000000e-02     1.813244e-28
 1.122019e-02     2.155039e-28
 1.258925e-02     2.563906e-28
 1.412538e-02     3.054052e-28
 1.584894e-02     3.643041e-28
 1.778279e-02     4.352618e-28
 1.995263e-02     5.209643e-28
 2.238721e-02     6.247064e-28
 2.511887e-02     7.505086e-28
 2.818385e-02     9.032335e-28
 3.162277e-02     1.088714e-27
 3.548136e-02     1.313910e-27
 3.981071e-02     1.587048e-27
 4.466837e-02     1.917835e-27
 5.011876e-02     2.317660e-27
 5.623413e-02     2.799873e-27
 6.309576e-02     3.380137e-27
 7.079456e-02     4.076796e-27
 7.943284e-02     4.911432e-27
 8.912515e-02     5.909437e-27
 1.000000e-01     7.100770e-27
 1.122019e-01     8.520965e-27
 1.258925e-01     1.020783e-26
 1.412538e-01     1.219066e-26
 1.584894e-01     1.449082e-26
 1.778279e-01     1.711898e-26
 1.995263e-01     2.007341e-26
 2.238721e-01     2.334020e-26
 2.511887e-01     2.689591e-26
 2.818385e-01     3.071087e-26
 3.162278e-01     3.475282e-26
 3.548135e-01     3.899001e-26
 3.981071e-01     4.339292e-26
 4.466837e-01     4.793559e-26
 5.011876e-01     5.259580e-26
 5.623413e-01     5.735521e-26
 6.309576e-01     6.219928e-26
 7.079456e-01     6.711668e-26
 7.943284e-01     7.209929e-26
 8.912515e-01     7.714156e-26
 1.000000e+00     8.224028e-26
 1.122019e+00     8.739444e-26
 1.258925e+00     9.260447e-26
 1.412538e+00     9.787241e-26
 1.584894e+00     1.032011e-25
 1.778279e+00     1.085945e-25
 1.995263e+00     1.140571e-25
 2.238721e+00     1.195937e-25
 2.511887e+00     1.252095e-25
 2.818385e+00     1.309102e-25
 3.162278e+00     1.367002e-25
 3.548136e+00     1.425629e-25
 3.981071e+00     1.485280e-25
 4.466837e+00     1.546603e-25
 5.011876e+00     1.610658e-25
 5.623413e+00     1.678985e-25
 6.309576e+00     1.753598e-25
 7.079456e+00     1.835779e-25
 7.943284e+00     1.927806e-25
 8.912516e+00     2.032722e-25
 1.000000e+01     2.154456e-25
 1.122019e+01     2.298119e-25
 1.258925e+01     2.470189e-25
 1.412538e+01     2.678626e-25
 1.584894e+01     2.932898e-25
 1.778279e+01     3.244044e-25
 1.995263e+01     3.624745e-25
 2.238721e+01     4.089345e-25
 2.511887e+01     4.653800e-25
 2.818385e+01     5.335312e-25
 3.162278e+01     6.151557e-25
 3.548135e+01     7.119362e-25
 3.981071e+01     8.252648e-25
 4.466837e+01     9.559997e-25
 5.011876e+01     1.104202e-24
 5.623413e+01     1.268742e-24
 6.309576e+01     1.445398e-24
 7.079456e+01     1.634974e-24
 7.943284e+01     1.848915e-24
 8.912515e+01     2.082261e-24
 1.000000e+02     2.345957e-24
 1.120000e+02     2.640396e-24
 1.250000e+02     2.970416e-24
 1.400000e+02     3.358298e-24
 1.550000e+02     3.748630e-24
 1.650000e+02     4.005259e-24
 1.750000e+02     4.253418e-24
 1.850000e+02     4.495857e-24
 1.900000e+02     4.615032e-24
 1.950000e+02     4.732281e-24
 2.000000e+02     4.849701e-24
 2.050000e+02     4.970024e-24
 2.100000e+02     5.102567e-24
 2.150000e+02     5.261240e-24
 2.180000e+02     5.381464e-24
 2.210000e+02     5.534795e-24
 2.240000e+02     5.733767e-24
 2.260000e+02     5.910420e-24
 2.270000e+02     6.014414e-24
 2.275000e+02     6.069410e-24
 2.278400e+02     6.108424e-24
 2.380000e+02     6.829114e-24
 2.500000e+02     7.813500e-24
 2.700000e+02     9.501275e-24
 2.900000e+02     1.133605e-23
 3.035000e+02     1.268725e-23
 3.037800e+02     1.502078e-23
 3.045000e+02     1.510453e-23
 3.060000e+02     1.528431e-23
 3.080000e+02     1.552235e-23
 3.100000e+02     1.575803e-23
 3.120000e+02     1.598891e-23
 3.150000e+02     1.633427e-23
 3.200000e+02     1.691270e-23
 3.250000e+02     1.749926e-23
 3.300000e+02     1.810500e-23
 3.400000e+02     1.936257e-23
 3.600000e+02     2.187190e-23
 3.800000e+02     2.434533e-23
 4.050000e+02     2.740740e-23
 4.250000e+02     2.985539e-23
 4.500000e+02     3.288077e-23
 4.650000e+02     3.468726e-23
 4.750000e+02     3.595316e-23
 4.820000e+02     3.676832e-23
 4.870000e+02     3.733236e-23
 4.910000e+02     3.778017e-23
 4.950000e+02     3.822810e-23
 4.980000e+02     3.856153e-23
 5.000000e+02     3.878921e-23
 5.020000e+02     3.901286e-23
 5.039800e+02     3.923420e-23
 5.100000e+02     3.998459e-23
 5.250000e+02     4.169546e-23
 5.600000e+02     4.579056e-23
 6.000000e+02     5.029363e-23
 6.500000e+02     5.600014e-23
 7.000000e+02     6.189161e-23
 7.500000e+02     6.847832e-23
 8.000000e+02     7.573921e-23
 8.300000e+02     8.046126e-23
 8.600000e+02     8.532916e-23
 8.800000e+02     8.902919e-23
 8.900000e+02     9.083791e-23
 8.960000e+02     9.193433e-23
 9.000000e+02     9.267129e-23
 9.030000e+02     9.322732e-23
 9.060000e+02     9.378583e-23
 9.090000e+02     9.453697e-23
 9.117800e+02     9.506161e-23
 9.300000e+02     1.218153e-22
 9.500000e+02     1.423454e-22
 9.750000e+02     1.793498e-22
 9.900000e+02     2.132356e-22
 1.005000e+03     2.538925e-22
 1.025000e+03     2.969752e-22
 1.045000e+03     3.321499e-22
 1.065000e+03     4.076184e-22
 1.085000e+03     4.642861e-22
 1.105000e+03     5.283723e-22
 1.125000e+03     6.089926e-22
 1.145000e+03     6.851734e-22
 1.165000e+03     7.713432e-22
 1.185000e+03     8.543625e-22
 1.205000e+03     9.372573e-22
 1.215600e+03     9.780512e-22
 1.215670e+03     9.924201e-22
 1.216000e+03     9.936456e-22
 1.218000e+03     1.000214e-21
 1.221000e+03     1.009310e-21
 1.225000e+03     1.022304e-21
 1.230000e+03     1.039692e-21
 1.240000e+03     1.083870e-21
 1.250000e+03     1.130976e-21
 1.265000e+03     1.214241e-21
 1.285000e+03     1.321557e-21
 1.305000e+03     1.434880e-21
 1.325000e+03     1.554391e-21
 1.345000e+03     1.676924e-21
 1.365000e+03     1.803466e-21
 1.385000e+03     1.925813e-21
 1.405000e+03     2.050553e-21
 1.425000e+03     2.173419e-21
 1.442000e+03     2.283857e-21
 1.455000e+03     2.370519e-21
 1.475000e+03     2.508371e-21
 1.517000e+03     2.782777e-21
 1.595000e+03     3.277567e-21
 1.672000e+03     3.793924e-21
 1.745000e+03     4.277970e-21
 1.825000e+03     4.825089e-21
 1.905000e+03     5.347375e-21
 1.984000e+03     5.847495e-21
 2.065000e+03     6.334984e-21
 2.135000e+03     6.724509e-21
 2.215000e+03     7.151013e-21
 2.295000e+03     7.564487e-21
 2.375000e+03     7.984359e-21
 2.455000e+03     8.406748e-21
 2.525000e+03     8.784312e-21
 2.605000e+03     9.221790e-21
 2.685000e+03     9.703910e-21
 2.765000e+03     1.016935e-20
 2.845000e+03     1.060282e-20
 2.950000e+03     1.122479e-20
 3.110000e+03     1.221656e-20
 3.270000e+03     1.319489e-20
 3.430000e+03     1.419149e-20
 3.590000e+03     1.516903e-20
 3.730000e+03     1.606462e-20
 3.890000e+03     1.747456e-20
 4.050000e+03     1.894597e-20
 4.210000e+03     2.104843e-20
 4.370000e+03     2.306087e-20
 4.530000e+03     2.525159e-20
 4.690000e+03     2.750994e-20
 4.850000e+03     2.978167e-20
 5.010000e+03     3.191816e-20
 5.170000e+03     3.409475e-20
 5.330000e+03     3.625641e-20
 5.490000e+03     3.846974e-20
 5.650000e+03     4.068794e-20
 5.810000e+03     4.297209e-20
 5.970000e+03     4.510908e-20
 6.130000e+03     4.728652e-20
 6.290000e+03     4.938405e-20
 6.450000e+03     5.141308e-20
 6.610000e+03     5.344413e-20
 6.770000e+03     5.540943e-20
 6.930000e+03     5.733093e-20
 7.090000e+03     5.920891e-20
 7.250000e+03     6.100355e-20
 7.410000e+03     6.277241e-20
 7.570000e+03     6.450987e-20
 7.730000e+03     6.621631e-20
 7.890000e+03     6.788493e-20
 8.050000e+03     6.950382e-20
 8.210000e+03     7.106575e-20
 8.370000e+03     7.259698e-20
 8.530000e+03     7.407687e-20
 8.690000e+03     7.549953e-20
 8.850000e+03     7.694165e-20
 9.010000e+03     7.833266e-20
 9.170000e+03     7.967570e-20
 9.330000e+03     8.103340e-20
 9.490000e+03     8.236306e-20
 9.650000e+03     8.366740e-20
 9.810000e+03     8.490247e-20
 9.970000e+03     8.613514e-20
 1.050000e+04     8.994426e-20
 1.150000e+04     9.573880e-20
 1.250000e+04     1.006349e-19
 1.350000e+04     1.046252e-19
 1.450000e+04     1.080468e-19
 1.550000e+04     1.111372e-19
 1.650000e+04     1.138526e-19
 1.750000e+04     1.157618e-19
 1.850000e+04     1.167172e-19
 1.950000e+04     1.168387e-19
 2.050000e+04     1.162389e-19
 2.150000e+04     1.151481e-19
 2.250000e+04     1.136744e-19
 2.350000e+04     1.120009e-19
 2.450000e+04     1.100607e-19
 2.550000e+04     1.080158e-19
 2.650000e+04     1.059785e-19
 2.750000e+04     1.038684e-19
 2.850000e+04     1.018083e-19
 2.950000e+04     9.991080e-20
 3.050000e+04     9.816442e-20
 3.150000e+04     9.664219e-20
 3.250000e+04     9.538534e-20
 3.350000e+04     9.438615e-20
 3.450000e+04     9.365286e-20
 3.550000e+04     9.312395e-20
 3.650000e+04     9.261223e-20
 3.750000e+04     9.223272e-20
 3.850000e+04     9.188979e-20
 3.950000e+04     9.173655e-20
 4.050000e+04     9.170301e-20
 4.150000e+04     9.173234e-20
 4.250000e+04     9.181553e-20
 4.350000e+04     9.202440e-20
 4.450000e+04     9.233026e-20
 4.550000e+04     9.270778e-20
 4.650000e+04     9.315856e-20
 4.750000e+04     9.369768e-20
 4.850000e+04     9.429616e-20
 4.950000e+04     9.492875e-20
 5.050000e+04     9.559653e-20
 5.150000e+04     9.630339e-20
 5.250000e+04     9.703731e-20
 5.350000e+04     9.716756e-20
 5.450000e+04     9.697644e-20
 5.550000e+04     9.702257e-20
 5.650000e+04     9.701212e-20
 5.750000e+04     9.749993e-20
 5.850000e+04     9.774779e-20
 5.950000e+04     9.791685e-20
 6.050000e+04     9.882858e-20
 6.150000e+04     1.028106e-19
 6.250000e+04     1.103403e-19
 6.350000e+04     1.155718e-19
 6.450000e+04     1.182224e-19
 6.550000e+04     1.205541e-19
 6.650010e+04     1.228407e-19
 6.750010e+04     1.253228e-19
 6.850010e+04     1.286840e-19
 6.950010e+04     1.322293e-19
 7.020000e+04     1.349473e-19
 7.100000e+04     1.377572e-19
 7.180000e+04     1.410441e-19
 7.260000e+04     1.449293e-19
 7.340000e+04     1.495844e-19
 7.420000e+04     1.549190e-19
 7.500000e+04     1.617192e-19
 7.580000e+04     1.705127e-19
 7.660000e+04     1.804967e-19
 7.740000e+04     1.902374e-19
 7.820000e+04     1.995315e-19
 7.900000e+04     2.082238e-19
 7.980000e+04     2.162120e-19
 8.060000e+04     2.234507e-19
 8.140000e+04     2.296457e-19
 8.220000e+04     2.348107e-19
 8.300000e+04     2.396917e-19
 8.380000e+04     2.444583e-19
 8.460000e+04     2.492650e-19
 8.540000e+04     2.543737e-19
 8.620000e+04     2.597073e-19
 8.700000e+04     2.650764e-19
 8.780000e+04     2.693911e-19
 8.860000e+04     2.724124e-19
 8.940000e+04     2.745801e-19
 9.020000e+04     2.760308e-19
 9.100000e+04     2.770665e-19
 9.180000e+04     2.775620e-19
 9.260000e+04     2.777478e-19
 9.340000e+04     2.777033e-19
 9.420000e+04     2.774544e-19
 9.500000e+04     2.770099e-19
 9.580000e+04     2.765062e-19
 9.660000e+04     2.762032e-19
 9.740000e+04     2.757272e-19
 9.820000e+04     2.745385e-19
 9.900000e+04     2.730605e-19
 9.980000e+04     2.714269e-19
 1.006000e+05     2.697386e-19
 1.020000e+05     2.666993e-19
 1.040000e+05     2.620260e-19
 1.060000e+05     2.586494e-19
 1.080000e+05     2.564448e-19
 1.100000e+05     2.552234e-19
 1.120000e+05     2.603869e-19
 1.140000e+05     2.730922e-19
 1.160000e+05     2.790193e-19
 1.180000e+05     2.831275e-19
 1.200000e+05     2.848275e-19
 1.220000e+05     2.886612e-19
 1.240000e+05     2.948495e-19
 1.260000e+05     3.027793e-19
 1.280000e+05     3.091796e-19
 1.300000e+05     3.159872e-19
 1.320000e+05     3.191058e-19
 1.340000e+05     3.215768e-19
 1.360000e+05     3.230338e-19
 1.380000e+05     3.220164e-19
 1.400000e+05     3.244758e-19
 1.420000e+05     3.258384e-19
 1.440000e+05     3.260233e-19
 1.460000e+05     3.252735e-19
 1.480000e+05     3.247631e-19
 1.500000e+05     3.246882e-19
 1.520000e+05     3.241865e-19
 1.540000e+05     3.232944e-19
 1.560000e+05     3.247810e-19
 1.580000e+05     3.262320e-19
 1.600000e+05     3.274829e-19
 1.620000e+05     3.280817e-19
 1.640000e+05     3.303028e-19
 1.660000e+05     3.349975e-19
 1.680000e+05     3.389804e-19
 1.700000e+05     3.445023e-19
 1.720000e+05     3.504163e-19
 1.740000e+05     3.561083e-19
 1.760000e+05     3.606564e-19
 1.780000e+05     3.648031e-19
 1.800000e+05     3.688405e-19
 1.820000e+05     3.717426e-19
 1.840000e+05     3.757582e-19
 1.860000e+05     3.800904e-19
 1.880000e+05     3.866664e-19
 1.900000e+05     3.921782e-19
 1.920000e+05     3.969855e-19
 1.940000e+05     4.010563e-19
 1.960000e+05     4.056379e-19
 1.980000e+05     4.100406e-19
 2.000000e+05     4.144363e-19
 2.020000e+05     4.189958e-19
 2.040000e+05     4.238563e-19
 2.060000e+05     4.287716e-19
 2.080000e+05     4.338168e-19
 2.100000e+05     4.390572e-19
 2.120000e+05     4.443220e-19
 2.140000e+05     4.495844e-19
 2.160000e+05     4.553188e-19
 2.180000e+05     4.612097e-19
 2.200000e+05     4.670651e-19
 2.220000e+05     4.732498e-19
 2.240000e+05     4.797050e-19
 2.260000e+05     4.860818e-19
 2.280000e+05     4.928468e-19
 2.300000e+05     4.998016e-19
 2.320000e+05     5.069191e-19
 2.340000e+05     5.143136e-19
 2.360000e+05     5.219741e-19
 2.380000e+05     5.297376e-19
 2.400000e+05     5.376376e-19
 2.420000e+05     5.457748e-19
 2.440000e+05     5.541851e-19
 2.460000e+05     5.628662e-19
 2.480000e+05     5.717363e-19
 2.500000e+05     5.806840e-19
 2.520000e+05     5.897518e-19
 2.540000e+05     5.990569e-19
 2.560000e+05     6.087278e-19
 2.580000e+05     6.189981e-19
 2.600000e+05     6.297912e-19
 2.620000e+05     6.403757e-19
 2.640000e+05     6.507691e-19
 2.660000e+05     6.613780e-19
 2.680000e+05     6.722238e-19
 2.700000e+05     6.832754e-19
 2.720000e+05     6.944954e-19
 2.740000e+05     7.058975e-19
 2.760000e+05     7.174132e-19
 2.780000e+05     7.292198e-19
 2.800000e+05     7.414690e-19
 2.820000e+05     7.542378e-19
 2.840000e+05     7.672302e-19
 2.860000e+05     7.800509e-19
 2.880000e+05     7.929995e-19
 2.900000e+05     8.062084e-19
 2.920000e+05     8.197119e-19
 2.940000e+05     8.334038e-19
 2.960000e+05     8.472570e-19
 2.980000e+05     8.613932e-19
 3.000000e+05     8.757818e-19
 3.020000e+05     8.902649e-19
 3.040000e+05     9.051197e-19
 3.060000e+05     9.202312e-19
 3.080000e+05     9.355721e-19
 3.100000e+05     9.511403e-19
 3.120000e+05     9.669155e-19
 3.140000e+05     9.829840e-19
 3.160000e+05     9.994043e-19
 3.180000e+05     1.016112e-18
 3.200000e+05     1.033030e-18
 3.220000e+05     1.050294e-18
 3.240000e+05     1.067900e-18
 3.260000e+05     1.085888e-18
 3.280000e+05     1.104220e-18
 3.300000e+05     1.122946e-18
 3.320000e+05     1.142205e-18
 3.340000e+05     1.163439e-18
 3.360000e+05     1.187498e-18
 3.380000e+05     1.209543e-18
 3.400000e+05     1.229489e-18
 3.420000e+05     1.249316e-18
 3.440000e+05     1.269386e-18
 3.460000e+05     1.290423e-18
 3.480000e+05     1.316084e-18
 3.500000e+05     1.344096e-18
 3.520000e+05     1.367498e-18
 3.540000e+05     1.388743e-18
 3.560000e+05     1.410375e-18
 3.580000e+05     1.431863e-18
 3.600000e+05     1.453586e-18
 3.620000e+05     1.476094e-18
 3.640000e+05     1.498569e-18
 3.660000e+05     1.521291e-18
 3.680000e+05     1.544394e-18
 3.700000e+05     1.568217e-18
 3.720000e+05     1.590577e-18
 3.740000e+05     1.614283e-18
 3.760000e+05     1.638890e-18
 3.780000e+05     1.663317e-18
 3.800000e+05     1.687242e-18
 3.820000e+05     1.711479e-18
 3.840000e+05     1.736742e-18
 3.860000e+05     1.761920e-18
 3.880000e+05     1.787249e-18
 3.900000e+05     1.813013e-18
 3.920000e+05     1.839361e-18
 4.320000e+05     2.389207e-18
 4.760000e+05     3.063531e-18
 5.250000e+05     3.880722e-18
 5.790000e+05     4.847127e-18
 6.390000e+05     5.992620e-18
 7.040000e+05     7.305085e-18
 7.760000e+05     8.870449e-18
 8.560000e+05     1.068712e-17
 9.430000e+05     1.261585e-17
 1.040000e+06     1.454142e-17
 1.147000e+06     1.626357e-17
 1.264000e+06     1.759768e-17
 1.394000e+06     1.842203e-17
 1.537000e+06     1.865064e-17
 1.694000e+06     1.828556e-17
 1.868000e+06     1.738343e-17
 2.059000e+06     1.606588e-17
 2.270000e+06     1.446139e-17
 2.503000e+06     1.270892e-17
 2.760000e+06     1.093301e-17
 3.043000e+06     9.233228e-18
 3.354000e+06     7.677395e-18
 3.698000e+06     6.293297e-18
