## EBL from Khaire & Srianand 2018; Q17 Model with alpha=-1.7 
## Column1:wavelength (Angstrom);  Column2:EBL specific intensity J_nu (erg/s/cm^2/Hz/Sr)
## ===========================================================================================
 1.000000e-08     2.180420e-38
 1.122019e-08     3.169553e-38
 1.258925e-08     4.529203e-38
 1.412538e-08     6.340436e-38
 1.584893e-08     8.701233e-38
 1.778279e-08     1.172617e-37
 1.995263e-08     1.554708e-37
 2.238721e-08     2.031462e-37
 2.511887e-08     2.620104e-37
 2.818382e-08     3.340307e-37
 3.162278e-08     4.214625e-37
 3.548135e-08     5.268916e-37
 3.981071e-08     6.532916e-37
 4.466837e-08     8.040901e-37
 5.011870e-08     9.832367e-37
 5.623413e-08     1.195300e-36
 6.309576e-08     1.445558e-36
 7.079456e-08     1.740114e-36
 7.943284e-08     2.086047e-36
 8.912505e-08     2.491540e-36
 1.000000e-07     2.966090e-36
 1.122019e-07     3.520690e-36
 1.258925e-07     4.168077e-36
 1.412538e-07     4.923035e-36
 1.584892e-07     5.802664e-36
 1.778279e-07     6.826832e-36
 1.995263e-07     8.018525e-36
 2.238721e-07     9.404390e-36
 2.511887e-07     1.101534e-35
 2.818382e-07     1.288716e-35
 3.162278e-07     1.506140e-35
 3.548136e-07     1.758612e-35
 3.981071e-07     2.051704e-35
 4.466837e-07     2.391883e-35
 5.011870e-07     2.786629e-35
 5.623413e-07     3.244626e-35
 6.309576e-07     3.775924e-35
 7.079456e-07     4.392171e-35
 7.943284e-07     5.106881e-35
 8.912505e-07     5.935690e-35
 1.000000e-06     6.896745e-35
 1.122019e-06     8.011053e-35
 1.258925e-06     9.302948e-35
 1.412538e-06     1.080068e-34
 1.584893e-06     1.253692e-34
 1.778279e-06     1.454958e-34
 1.995263e-06     1.688257e-34
 2.238721e-06     1.958673e-34
 2.511887e-06     2.272109e-34
 2.818382e-06     2.635390e-34
 3.162278e-06     3.056440e-34
 3.548136e-06     3.544432e-34
 3.981071e-06     4.109991e-34
 4.466837e-06     4.765447e-34
 5.011870e-06     5.525062e-34
 5.623413e-06     6.405396e-34
 6.309576e-06     7.425609e-34
 7.079456e-06     8.607903e-34
 7.943284e-06     9.978040e-34
 8.912505e-06     1.156582e-33
 1.000000e-05     1.340583e-33
 1.122019e-05     1.553813e-33
 1.258925e-05     1.800907e-33
 1.412538e-05     2.087251e-33
 1.584893e-05     2.419069e-33
 1.778279e-05     2.803588e-33
 1.995263e-05     3.249176e-33
 2.238721e-05     3.765524e-33
 2.511887e-05     4.363873e-33
 2.818382e-05     5.057236e-33
 3.162278e-05     5.860713e-33
 3.548135e-05     6.791779e-33
 3.981071e-05     7.870685e-33
 4.466837e-05     9.120924e-33
 5.011870e-05     1.056968e-32
 5.623413e-05     1.224849e-32
 6.309577e-05     1.419388e-32
 7.079457e-05     1.644816e-32
 7.943284e-05     1.906040e-32
 8.912505e-05     2.208739e-32
 1.000000e-04     2.559505e-32
 1.122018e-04     2.965964e-32
 1.258926e-04     3.436236e-32
 1.412538e-04     3.969704e-32
 1.584893e-04     4.584118e-32
 1.778279e-04     5.296093e-32
 1.995262e-04     6.123352e-32
 2.238722e-04     7.086017e-32
 2.511887e-04     8.207494e-32
 2.818383e-04     9.515311e-32
 3.162278e-04     1.104192e-31
 3.548134e-04     1.282564e-31
 3.981073e-04     1.491176e-31
 4.466837e-04     1.735387e-31
 5.011873e-04     2.021542e-31
 5.623413e-04     2.357157e-31
 6.309572e-04     2.751140e-31
 7.079460e-04     3.214066e-31
 7.943284e-04     3.758480e-31
 8.912510e-04     4.399287e-31
 1.000000e-03     5.154202e-31
 1.122018e-03     6.044287e-31
 1.258926e-03     7.094623e-31
 1.412538e-03     8.335027e-31
 1.584893e-03     9.801038e-31
 1.778279e-03     1.153502e-30
 1.995262e-03     1.358744e-30
 2.238722e-03     1.601853e-30
 2.511887e-03     1.890010e-30
 2.818383e-03     2.231793e-30
 3.162278e-03     2.637440e-30
 3.548133e-03     3.119179e-30
 3.981073e-03     3.691632e-30
 4.466837e-03     4.372265e-30
 5.011873e-03     5.181985e-30
 5.623413e-03     6.145841e-30
 6.309573e-03     7.293949e-30
 7.079460e-03     8.662702e-30
 7.943284e-03     1.029642e-29
 8.912510e-03     1.224962e-29
 1.000000e-02     1.459000e-29
 1.122019e-02     1.740215e-29
 1.258925e-02     2.079193e-29
 1.412538e-02     2.489152e-29
 1.584894e-02     2.986440e-29
 1.778279e-02     3.591062e-29
 1.995263e-02     4.327213e-29
 2.238721e-02     5.223764e-29
 2.511887e-02     6.314872e-29
 2.818385e-02     7.640589e-29
 3.162277e-02     9.247643e-29
 3.548136e-02     1.119054e-28
 3.981071e-02     1.353265e-28
 4.466837e-02     1.634806e-28
 5.011876e-02     1.972346e-28
 5.623413e-02     2.376061e-28
 6.309576e-02     2.857965e-28
 7.079456e-02     3.432248e-28
 7.943284e-02     4.115757e-28
 8.912515e-02     4.928494e-28
 1.000000e-01     5.894258e-28
 1.122019e-01     7.042440e-28
 1.258925e-01     8.368292e-28
 1.412538e-01     9.828540e-28
 1.584894e-01     1.139781e-27
 1.778279e-01     1.305874e-27
 1.995263e-01     1.479772e-27
 2.238721e-01     1.660294e-27
 2.511887e-01     1.846414e-27
 2.818385e-01     2.037233e-27
 3.162278e-01     2.231990e-27
 3.548135e-01     2.430068e-27
 3.981071e-01     2.630983e-27
 4.466837e-01     2.834384e-27
 5.011876e-01     3.040027e-27
 5.623413e-01     3.247778e-27
 6.309576e-01     3.457455e-27
 7.079456e-01     3.669212e-27
 7.943284e-01     3.883109e-27
 8.912515e-01     4.099233e-27
 1.000000e+00     4.317700e-27
 1.122019e+00     4.538625e-27
 1.258925e+00     4.762087e-27
 1.412538e+00     4.988121e-27
 1.584894e+00     5.216654e-27
 1.778279e+00     5.447461e-27
 1.995263e+00     5.680089e-27
 2.238721e+00     5.913737e-27
 2.511887e+00     6.147099e-27
 2.818385e+00     6.378126e-27
 3.162278e+00     6.601495e-27
 3.548136e+00     6.805250e-27
 3.981071e+00     7.009995e-27
 4.466837e+00     7.219980e-27
 5.011876e+00     7.431030e-27
 5.623413e+00     7.633073e-27
 6.309576e+00     7.781196e-27
 7.079456e+00     7.799265e-27
 7.943284e+00     7.808213e-27
 8.912516e+00     7.716169e-27
 1.000000e+01     7.578059e-27
 1.122019e+01     7.311892e-27
 1.258925e+01     6.940453e-27
 1.412538e+01     6.477932e-27
 1.584894e+01     5.944441e-27
 1.778279e+01     5.370636e-27
 1.995263e+01     4.781431e-27
 2.238721e+01     4.206140e-27
 2.511887e+01     3.663571e-27
 2.818385e+01     3.166887e-27
 3.162278e+01     2.723764e-27
 3.548135e+01     2.336305e-27
 3.981071e+01     2.002347e-27
 4.466837e+01     1.718326e-27
 5.011876e+01     1.476780e-27
 5.623413e+01     1.272944e-27
 6.309576e+01     1.100574e-27
 7.079456e+01     9.553555e-28
 7.943284e+01     8.328867e-28
 8.912515e+01     7.295737e-28
 1.000000e+02     6.431557e-28
 1.120000e+02     5.713889e-28
 1.250000e+02     5.130165e-28
 1.400000e+02     4.626896e-28
 1.550000e+02     4.248401e-28
 1.650000e+02     4.049121e-28
 1.750000e+02     3.882648e-28
 1.850000e+02     3.751291e-28
 1.900000e+02     3.712917e-28
 1.950000e+02     3.715985e-28
 2.000000e+02     3.806880e-28
 2.050000e+02     4.083975e-28
 2.100000e+02     4.746794e-28
 2.150000e+02     6.185045e-28
 2.180000e+02     7.704537e-28
 2.210000e+02     1.000711e-27
 2.240000e+02     1.344888e-27
 2.260000e+02     1.661640e-27
 2.270000e+02     1.853107e-27
 2.275000e+02     1.958300e-27
 2.278400e+02     2.033699e-27
 2.380000e+02     1.097944e-23
 2.500000e+02     2.278166e-23
 2.700000e+02     3.008947e-23
 2.900000e+02     3.373672e-23
 3.035000e+02     3.568360e-23
 3.037800e+02     3.870021e-23
 3.045000e+02     3.846522e-23
 3.060000e+02     3.814762e-23
 3.080000e+02     3.786724e-23
 3.100000e+02     3.769896e-23
 3.120000e+02     3.766427e-23
 3.150000e+02     3.774021e-23
 3.200000e+02     3.812017e-23
 3.250000e+02     3.864600e-23
 3.300000e+02     3.924532e-23
 3.400000e+02     4.052373e-23
 3.600000e+02     4.310968e-23
 3.800000e+02     4.569289e-23
 4.050000e+02     4.887391e-23
 4.250000e+02     5.138757e-23
 4.500000e+02     5.447595e-23
 4.650000e+02     5.631106e-23
 4.750000e+02     5.754096e-23
 4.820000e+02     5.839279e-23
 4.870000e+02     5.899182e-23
 4.910000e+02     5.947795e-23
 4.950000e+02     5.996484e-23
 4.980000e+02     6.032042e-23
 5.000000e+02     6.055855e-23
 5.020000e+02     6.079847e-23
 5.039800e+02     6.103888e-23
 5.100000e+02     6.829038e-23
 5.250000e+02     7.644602e-23
 5.600000e+02     8.398871e-23
 6.000000e+02     9.013352e-23
 6.500000e+02     9.797616e-23
 7.000000e+02     1.073614e-22
 7.500000e+02     1.196120e-22
 8.000000e+02     1.361816e-22
 8.300000e+02     1.488405e-22
 8.600000e+02     1.642551e-22
 8.800000e+02     1.761382e-22
 8.900000e+02     1.826139e-22
 8.960000e+02     1.867171e-22
 9.000000e+02     1.895115e-22
 9.030000e+02     1.916271e-22
 9.060000e+02     1.938243e-22
 9.090000e+02     1.960405e-22
 9.117800e+02     1.981504e-22
 9.300000e+02     7.014879e-22
 9.500000e+02     1.718812e-21
 9.750000e+02     3.356767e-21
 9.900000e+02     4.221112e-21
 1.005000e+03     5.239314e-21
 1.025000e+03     6.841836e-21
 1.045000e+03     8.067865e-21
 1.065000e+03     9.930831e-21
 1.085000e+03     1.161722e-20
 1.105000e+03     1.329266e-20
 1.125000e+03     1.501382e-20
 1.145000e+03     1.651704e-20
 1.165000e+03     1.813272e-20
 1.185000e+03     1.953856e-20
 1.205000e+03     2.092524e-20
 1.215600e+03     2.149114e-20
 1.215670e+03     2.356443e-20
 1.216000e+03     2.357893e-20
 1.218000e+03     2.366683e-20
 1.221000e+03     2.379850e-20
 1.225000e+03     2.394458e-20
 1.230000e+03     2.410426e-20
 1.240000e+03     2.464292e-20
 1.250000e+03     2.528574e-20
 1.265000e+03     2.656767e-20
 1.285000e+03     2.792090e-20
 1.305000e+03     2.932051e-20
 1.325000e+03     3.071904e-20
 1.345000e+03     3.190683e-20
 1.365000e+03     3.315711e-20
 1.385000e+03     3.450057e-20
 1.405000e+03     3.551219e-20
 1.425000e+03     3.656274e-20
 1.442000e+03     3.734105e-20
 1.455000e+03     3.804435e-20
 1.475000e+03     3.897981e-20
 1.517000e+03     4.061131e-20
 1.595000e+03     4.313700e-20
 1.672000e+03     4.497978e-20
 1.745000e+03     4.661726e-20
 1.825000e+03     4.809067e-20
 1.905000e+03     4.909504e-20
 1.984000e+03     4.970889e-20
 2.065000e+03     5.021828e-20
 2.135000e+03     5.035686e-20
 2.215000e+03     5.043678e-20
 2.295000e+03     5.038591e-20
 2.375000e+03     5.029599e-20
 2.455000e+03     5.021932e-20
 2.525000e+03     5.000235e-20
 2.605000e+03     4.991864e-20
 2.685000e+03     5.003194e-20
 2.765000e+03     4.996534e-20
 2.845000e+03     4.975120e-20
 2.950000e+03     4.971169e-20
 3.110000e+03     4.937314e-20
 3.270000e+03     4.921441e-20
 3.430000e+03     4.898338e-20
 3.590000e+03     4.873177e-20
 3.730000e+03     4.898905e-20
 3.890000e+03     5.130719e-20
 4.050000e+03     5.451500e-20
 4.210000e+03     5.827208e-20
 4.370000e+03     6.119570e-20
 4.530000e+03     6.390301e-20
 4.690000e+03     6.641079e-20
 4.850000e+03     6.796221e-20
 5.010000e+03     6.954315e-20
 5.170000e+03     7.083592e-20
 5.330000e+03     7.203537e-20
 5.490000e+03     7.307213e-20
 5.650000e+03     7.402850e-20
 5.810000e+03     7.497014e-20
 5.970000e+03     7.561452e-20
 6.130000e+03     7.624796e-20
 6.290000e+03     7.680038e-20
 6.450000e+03     7.725489e-20
 6.610000e+03     7.765591e-20
 6.770000e+03     7.809636e-20
 6.930000e+03     7.844353e-20
 7.090000e+03     7.871354e-20
 7.250000e+03     7.896179e-20
 7.410000e+03     7.921337e-20
 7.570000e+03     7.953252e-20
 7.730000e+03     7.988858e-20
 7.890000e+03     8.020692e-20
 8.050000e+03     8.047347e-20
 8.210000e+03     8.074353e-20
 8.370000e+03     8.101141e-20
 8.530000e+03     8.126236e-20
 8.690000e+03     8.153243e-20
 8.850000e+03     8.195327e-20
 9.010000e+03     8.232874e-20
 9.170000e+03     8.275300e-20
 9.330000e+03     8.319200e-20
 9.490000e+03     8.366341e-20
 9.650000e+03     8.401672e-20
 9.810000e+03     8.439561e-20
 9.970000e+03     8.476496e-20
 1.050000e+04     8.561146e-20
 1.150000e+04     8.608728e-20
 1.250000e+04     8.609044e-20
 1.350000e+04     8.596770e-20
 1.450000e+04     8.602165e-20
 1.550000e+04     8.677380e-20
 1.650000e+04     8.706916e-20
 1.750000e+04     8.627941e-20
 1.850000e+04     8.446928e-20
 1.950000e+04     8.216882e-20
 2.050000e+04     8.009133e-20
 2.150000e+04     7.817016e-20
 2.250000e+04     7.628445e-20
 2.350000e+04     7.459016e-20
 2.450000e+04     7.360851e-20
 2.550000e+04     7.312955e-20
 2.650000e+04     7.307856e-20
 2.750000e+04     7.344730e-20
 2.850000e+04     7.424143e-20
 2.950000e+04     7.547052e-20
 3.050000e+04     7.714160e-20
 3.150000e+04     7.924841e-20
 3.250000e+04     8.172697e-20
 3.350000e+04     8.440015e-20
 3.450000e+04     8.697662e-20
 3.550000e+04     8.932530e-20
 3.650000e+04     9.154151e-20
 3.750000e+04     9.376320e-20
 3.850000e+04     9.603652e-20
 3.950000e+04     9.846279e-20
 4.050000e+04     1.007971e-19
 4.150000e+04     1.032919e-19
 4.250000e+04     1.056827e-19
 4.350000e+04     1.081690e-19
 4.450000e+04     1.106808e-19
 4.550000e+04     1.132124e-19
 4.650000e+04     1.157602e-19
 4.750000e+04     1.183230e-19
 4.850000e+04     1.209028e-19
 4.950000e+04     1.234986e-19
 5.050000e+04     1.261463e-19
 5.150000e+04     1.288170e-19
 5.250000e+04     1.316649e-19
 5.350000e+04     1.328531e-19
 5.450000e+04     1.332141e-19
 5.550000e+04     1.341060e-19
 5.650000e+04     1.353711e-19
 5.750000e+04     1.374672e-19
 5.850000e+04     1.403071e-19
 5.950000e+04     1.454915e-19
 6.050000e+04     1.536338e-19
 6.150000e+04     1.631171e-19
 6.250000e+04     1.767840e-19
 6.350000e+04     1.872888e-19
 6.450000e+04     1.959027e-19
 6.550000e+04     2.032314e-19
 6.650010e+04     2.088390e-19
 6.750010e+04     2.143354e-19
 6.850010e+04     2.190194e-19
 6.950010e+04     2.236207e-19
 7.020000e+04     2.288341e-19
 7.100000e+04     2.341581e-19
 7.180000e+04     2.406438e-19
 7.260000e+04     2.490473e-19
 7.340000e+04     2.594340e-19
 7.420000e+04     2.719684e-19
 7.500000e+04     2.865870e-19
 7.580000e+04     3.026936e-19
 7.660000e+04     3.191095e-19
 7.740000e+04     3.327240e-19
 7.820000e+04     3.443783e-19
 7.900000e+04     3.542303e-19
 7.980000e+04     3.612748e-19
 8.060000e+04     3.669990e-19
 8.140000e+04     3.714279e-19
 8.220000e+04     3.748114e-19
 8.300000e+04     3.781893e-19
 8.380000e+04     3.813311e-19
 8.460000e+04     3.834327e-19
 8.540000e+04     3.843231e-19
 8.620000e+04     3.841486e-19
 8.700000e+04     3.822658e-19
 8.780000e+04     3.787893e-19
 8.860000e+04     3.743822e-19
 8.940000e+04     3.694189e-19
 9.020000e+04     3.644317e-19
 9.100000e+04     3.591094e-19
 9.180000e+04     3.530279e-19
 9.260000e+04     3.463594e-19
 9.340000e+04     3.393688e-19
 9.420000e+04     3.326415e-19
 9.500000e+04     3.261815e-19
 9.580000e+04     3.198129e-19
 9.660000e+04     3.140355e-19
 9.740000e+04     3.086771e-19
 9.820000e+04     3.031027e-19
 9.900000e+04     2.978182e-19
 9.980000e+04     2.927371e-19
 1.006000e+05     2.883624e-19
 1.020000e+05     2.817316e-19
 1.040000e+05     2.738577e-19
 1.060000e+05     2.728512e-19
 1.080000e+05     2.757438e-19
 1.100000e+05     2.748295e-19
 1.120000e+05     2.832781e-19
 1.140000e+05     3.048926e-19
 1.160000e+05     3.205602e-19
 1.180000e+05     3.338957e-19
 1.200000e+05     3.449688e-19
 1.220000e+05     3.544115e-19
 1.240000e+05     3.625462e-19
 1.260000e+05     3.650390e-19
 1.280000e+05     3.756526e-19
 1.300000e+05     3.836357e-19
 1.320000e+05     3.855155e-19
 1.340000e+05     3.852394e-19
 1.360000e+05     3.830811e-19
 1.380000e+05     3.777534e-19
 1.400000e+05     3.733250e-19
 1.420000e+05     3.670943e-19
 1.440000e+05     3.632692e-19
 1.460000e+05     3.570663e-19
 1.480000e+05     3.527360e-19
 1.500000e+05     3.485032e-19
 1.520000e+05     3.453014e-19
 1.540000e+05     3.408714e-19
 1.560000e+05     3.404094e-19
 1.580000e+05     3.407116e-19
 1.600000e+05     3.420596e-19
 1.620000e+05     3.438862e-19
 1.640000e+05     3.485582e-19
 1.660000e+05     3.567119e-19
 1.680000e+05     3.615898e-19
 1.700000e+05     3.682967e-19
 1.720000e+05     3.762575e-19
 1.740000e+05     3.822944e-19
 1.760000e+05     3.878474e-19
 1.780000e+05     3.923212e-19
 1.800000e+05     3.970675e-19
 1.820000e+05     4.029560e-19
 1.840000e+05     4.064977e-19
 1.860000e+05     4.089939e-19
 1.880000e+05     4.162473e-19
 1.900000e+05     4.190094e-19
 1.920000e+05     4.210602e-19
 1.940000e+05     4.238830e-19
 1.960000e+05     4.268515e-19
 1.980000e+05     4.299049e-19
 2.000000e+05     4.327868e-19
 2.020000e+05     4.356405e-19
 2.040000e+05     4.387473e-19
 2.060000e+05     4.423119e-19
 2.080000e+05     4.455990e-19
 2.100000e+05     4.494056e-19
 2.120000e+05     4.542973e-19
 2.140000e+05     4.588412e-19
 2.160000e+05     4.639054e-19
 2.180000e+05     4.699980e-19
 2.200000e+05     4.758038e-19
 2.220000e+05     4.814653e-19
 2.240000e+05     4.881510e-19
 2.260000e+05     4.950060e-19
 2.280000e+05     5.015820e-19
 2.300000e+05     5.086579e-19
 2.320000e+05     5.163149e-19
 2.340000e+05     5.240881e-19
 2.360000e+05     5.316870e-19
 2.380000e+05     5.395223e-19
 2.400000e+05     5.479667e-19
 2.420000e+05     5.564957e-19
 2.440000e+05     5.648518e-19
 2.460000e+05     5.735903e-19
 2.480000e+05     5.826977e-19
 2.500000e+05     5.920593e-19
 2.520000e+05     6.015410e-19
 2.540000e+05     6.114385e-19
 2.560000e+05     6.215646e-19
 2.580000e+05     6.321363e-19
 2.600000e+05     6.433121e-19
 2.620000e+05     6.538434e-19
 2.640000e+05     6.642190e-19
 2.660000e+05     6.749775e-19
 2.680000e+05     6.860761e-19
 2.700000e+05     6.974959e-19
 2.720000e+05     7.090245e-19
 2.740000e+05     7.206228e-19
 2.760000e+05     7.325696e-19
 2.780000e+05     7.450235e-19
 2.800000e+05     7.574953e-19
 2.820000e+05     7.701814e-19
 2.840000e+05     7.828376e-19
 2.860000e+05     7.947319e-19
 2.880000e+05     8.067997e-19
 2.900000e+05     8.197200e-19
 2.920000e+05     8.326276e-19
 2.940000e+05     8.456372e-19
 2.960000e+05     8.590603e-19
 2.980000e+05     8.727028e-19
 3.000000e+05     8.861761e-19
 3.020000e+05     9.003600e-19
 3.040000e+05     9.145332e-19
 3.060000e+05     9.285899e-19
 3.080000e+05     9.430238e-19
 3.100000e+05     9.576949e-19
 3.120000e+05     9.720628e-19
 3.140000e+05     9.869827e-19
 3.160000e+05     1.003174e-18
 3.180000e+05     1.019263e-18
 3.200000e+05     1.035744e-18
 3.220000e+05     1.053013e-18
 3.240000e+05     1.070191e-18
 3.260000e+05     1.088065e-18
 3.280000e+05     1.108413e-18
 3.300000e+05     1.131280e-18
 3.320000e+05     1.153616e-18
 3.340000e+05     1.177127e-18
 3.360000e+05     1.203978e-18
 3.380000e+05     1.227557e-18
 3.400000e+05     1.244450e-18
 3.420000e+05     1.264247e-18
 3.440000e+05     1.288668e-18
 3.460000e+05     1.310628e-18
 3.480000e+05     1.336797e-18
 3.500000e+05     1.365918e-18
 3.520000e+05     1.386384e-18
 3.540000e+05     1.401350e-18
 3.560000e+05     1.418208e-18
 3.580000e+05     1.435749e-18
 3.600000e+05     1.452286e-18
 3.620000e+05     1.471854e-18
 3.640000e+05     1.490638e-18
 3.660000e+05     1.508394e-18
 3.680000e+05     1.528017e-18
 3.700000e+05     1.546839e-18
 3.720000e+05     1.564518e-18
 3.740000e+05     1.583362e-18
 3.760000e+05     1.602066e-18
 3.780000e+05     1.620828e-18
 3.800000e+05     1.640428e-18
 3.820000e+05     1.659670e-18
 3.840000e+05     1.678479e-18
 3.860000e+05     1.697469e-18
 3.880000e+05     1.716727e-18
 3.900000e+05     1.736046e-18
 3.920000e+05     1.755350e-18
 4.320000e+05     2.168016e-18
 4.760000e+05     2.651187e-18
 5.250000e+05     3.211565e-18
 5.790000e+05     3.839954e-18
 6.390000e+05     4.541370e-18
 7.040000e+05     5.291505e-18
 7.760000e+05     6.216974e-18
 8.560000e+05     7.348645e-18
 9.430000e+05     8.663842e-18
 1.040000e+06     1.015274e-17
 1.147000e+06     1.171717e-17
 1.264000e+06     1.321579e-17
 1.394000e+06     1.451388e-17
 1.537000e+06     1.544617e-17
 1.694000e+06     1.590122e-17
 1.868000e+06     1.583028e-17
 2.059000e+06     1.524914e-17
 2.270000e+06     1.422890e-17
 2.503000e+06     1.288126e-17
 2.760000e+06     1.133526e-17
 3.043000e+06     9.717061e-18
 3.354000e+06     8.132886e-18
 3.698000e+06     6.650831e-18
