## EBL from Khaire & Srianand 2018; Q17 Model with alpha=-1.7 
## Column1:wavelength (Angstrom);  Column2:EBL specific intensity J_nu (erg/s/cm^2/Hz/Sr)
## ===========================================================================================
 1.000000e-08     9.022028e-37
 1.122019e-08     1.313896e-36
 1.258925e-08     1.894495e-36
 1.412538e-08     2.690365e-36
 1.584893e-08     3.754929e-36
 1.778279e-08     5.149613e-36
 1.995263e-08     6.944881e-36
 2.238721e-08     9.221421e-36
 2.511887e-08     1.207164e-35
 2.818382e-08     1.560121e-35
 3.162278e-08     1.993116e-35
 3.548135e-08     2.520011e-35
 3.981071e-08     3.156715e-35
 4.466837e-08     3.921523e-35
 5.011870e-08     4.835476e-35
 5.623413e-08     5.922869e-35
 6.309576e-08     7.211722e-35
 7.079456e-08     8.734410e-35
 7.943284e-08     1.052843e-34
 8.912505e-08     1.263710e-34
 1.000000e-07     1.511069e-34
 1.122019e-07     1.800734e-34
 1.258925e-07     2.139440e-34
 1.412538e-07     2.535004e-34
 1.584892e-07     2.996468e-34
 1.778279e-07     3.534334e-34
 1.995263e-07     4.160755e-34
 2.238721e-07     4.889818e-34
 2.511887e-07     5.737865e-34
 2.818382e-07     6.723816e-34
 3.162278e-07     7.869630e-34
 3.548136e-07     9.200729e-34
 3.981071e-07     1.074657e-33
 4.466837e-07     1.254134e-33
 5.011870e-07     1.462458e-33
 5.623413e-07     1.704223e-33
 6.309576e-07     1.984742e-33
 7.079456e-07     2.310173e-33
 7.943284e-07     2.687663e-33
 8.912505e-07     3.125479e-33
 1.000000e-06     3.633218e-33
 1.122019e-06     4.221987e-33
 1.258925e-06     4.904655e-33
 1.412538e-06     5.696161e-33
 1.584893e-06     6.613778e-33
 1.778279e-06     7.677553e-33
 1.995263e-06     8.910711e-33
 2.238721e-06     1.034014e-32
 2.511887e-06     1.199705e-32
 2.818382e-06     1.391752e-32
 3.162278e-06     1.614347e-32
 3.548136e-06     1.872341e-32
 3.981071e-06     2.171351e-32
 4.466837e-06     2.517898e-32
 5.011870e-06     2.919525e-32
 5.623413e-06     3.384987e-32
 6.309576e-06     3.924418e-32
 7.079456e-06     4.549558e-32
 7.943284e-06     5.274030e-32
 8.912505e-06     6.113593e-32
 1.000000e-05     7.086542e-32
 1.122019e-05     8.214047e-32
 1.258925e-05     9.520638e-32
 1.412538e-05     1.103478e-31
 1.584893e-05     1.278940e-31
 1.778279e-05     1.482271e-31
 1.995263e-05     1.717896e-31
 2.238721e-05     1.990939e-31
 2.511887e-05     2.307346e-31
 2.818382e-05     2.673998e-31
 3.162278e-05     3.098880e-31
 3.548135e-05     3.591232e-31
 3.981071e-05     4.161766e-31
 4.466837e-05     4.822903e-31
 5.011870e-05     5.589017e-31
 5.623413e-05     6.476792e-31
 6.309577e-05     7.505539e-31
 7.079457e-05     8.697626e-31
 7.943284e-05     1.007901e-30
 8.912505e-05     1.167973e-30
 1.000000e-04     1.353463e-30
 1.122018e-04     1.568404e-30
 1.258926e-04     1.817397e-30
 1.412538e-04     2.102997e-30
 1.584893e-04     2.431316e-30
 1.778279e-04     2.810021e-30
 1.995262e-04     3.248181e-30
 2.238722e-04     3.756403e-30
 2.511887e-04     4.347049e-30
 2.818383e-04     5.034567e-30
 3.162278e-04     5.835890e-30
 3.548134e-04     6.770917e-30
 3.981073e-04     7.863108e-30
 4.466837e-04     9.140142e-30
 5.011873e-04     1.063475e-29
 5.623413e-04     1.238568e-29
 6.309572e-04     1.443880e-29
 7.079460e-04     1.684850e-29
 7.943284e-04     1.967925e-29
 8.912510e-04     2.300760e-29
 1.000000e-03     2.692449e-29
 1.122018e-03     3.153793e-29
 1.258926e-03     3.697644e-29
 1.412538e-03     4.339274e-29
 1.584893e-03     5.096874e-29
 1.778279e-03     5.992111e-29
 1.995262e-03     7.050795e-29
 2.238722e-03     8.303696e-29
 2.511887e-03     9.787489e-29
 2.818383e-03     1.154595e-28
 3.162278e-03     1.363133e-28
 3.548133e-03     1.610599e-28
 3.981073e-03     1.904446e-28
 4.466837e-03     2.253573e-28
 5.011873e-03     2.668623e-28
 5.623413e-03     3.162335e-28
 6.309573e-03     3.749987e-28
 7.079460e-03     4.449959e-28
 7.943284e-03     5.284489e-28
 8.912510e-03     6.280693e-28
 1.000000e-02     7.471912e-28
 1.122019e-02     8.899458e-28
 1.258925e-02     1.061475e-27
 1.412538e-02     1.268194e-27
 1.584894e-02     1.518067e-27
 1.778279e-02     1.820922e-27
 1.995263e-02     2.188777e-27
 2.238721e-02     2.636151e-27
 2.511887e-02     3.180438e-27
 2.818385e-02     3.842258e-27
 3.162277e-02     4.645881e-27
 3.548136e-02     5.619786e-27
 3.981071e-02     6.797190e-27
 4.466837e-02     8.216943e-27
 5.011876e-02     9.924415e-27
 5.623413e-02     1.197272e-26
 6.309576e-02     1.442434e-26
 7.079456e-02     1.735276e-26
 7.943284e-02     2.084495e-26
 8.912515e-02     2.500381e-26
 1.000000e-01     2.995150e-26
 1.122019e-01     3.583473e-26
 1.258925e-01     4.274897e-26
 1.412538e-01     5.064093e-26
 1.584894e-01     5.942434e-26
 1.778279e-01     6.899817e-26
 1.995263e-01     7.925903e-26
 2.238721e-01     9.010830e-26
 2.511887e-01     1.014568e-25
 2.818385e-01     1.132257e-25
 3.162278e-01     1.253472e-25
 3.548135e-01     1.377645e-25
 3.981071e-01     1.504304e-25
 4.466837e-01     1.633075e-25
 5.011876e-01     1.763673e-25
 5.623413e-01     1.895888e-25
 6.309576e-01     2.029589e-25
 7.079456e-01     2.164701e-25
 7.943284e-01     2.301208e-25
 8.912515e-01     2.439135e-25
 1.000000e+00     2.578543e-25
 1.122019e+00     2.719527e-25
 1.258925e+00     2.862192e-25
 1.412538e+00     3.006668e-25
 1.584894e+00     3.153090e-25
 1.778279e+00     3.301598e-25
 1.995263e+00     3.452340e-25
 2.238721e+00     3.605461e-25
 2.511887e+00     3.761119e-25
 2.818385e+00     3.919477e-25
 3.162278e+00     4.080444e-25
 3.548136e+00     4.241296e-25
 3.981071e+00     4.408202e-25
 4.466837e+00     4.588268e-25
 5.011876e+00     4.788905e-25
 5.623413e+00     5.017896e-25
 6.309576e+00     5.283006e-25
 7.079456e+00     5.576170e-25
 7.943284e+00     5.912574e-25
 8.912516e+00     6.312142e-25
 1.000000e+01     6.797592e-25
 1.122019e+01     7.394340e-25
 1.258925e+01     8.130912e-25
 1.412538e+01     9.039744e-25
 1.584894e+01     1.015789e-24
 1.778279e+01     1.152762e-24
 1.995263e+01     1.319645e-24
 2.238721e+01     1.521632e-24
 2.511887e+01     1.764164e-24
 2.818385e+01     2.052538e-24
 3.162278e+01     2.391313e-24
 3.548135e+01     2.783524e-24
 3.981071e+01     3.229258e-24
 4.466837e+01     3.724275e-24
 5.011876e+01     4.246684e-24
 5.623413e+01     4.863573e-24
 6.309576e+01     5.525980e-24
 7.079456e+01     6.255333e-24
 7.943284e+01     7.077362e-24
 8.912515e+01     8.043019e-24
 1.000000e+02     9.199916e-24
 1.120000e+02     1.051292e-23
 1.250000e+02     1.194779e-23
 1.400000e+02     1.363662e-23
 1.550000e+02     1.525239e-23
 1.650000e+02     1.631105e-23
 1.750000e+02     1.732515e-23
 1.850000e+02     1.834203e-23
 1.900000e+02     1.882293e-23
 1.950000e+02     1.929503e-23
 2.000000e+02     1.980937e-23
 2.050000e+02     2.034716e-23
 2.100000e+02     2.103423e-23
 2.150000e+02     2.198544e-23
 2.180000e+02     2.281870e-23
 2.210000e+02     2.397940e-23
 2.240000e+02     2.559441e-23
 2.260000e+02     2.705089e-23
 2.270000e+02     2.790158e-23
 2.275000e+02     2.839327e-23
 2.278400e+02     2.878696e-23
 2.380000e+02     3.456345e-23
 2.500000e+02     4.161998e-23
 2.700000e+02     5.191350e-23
 2.900000e+02     6.247075e-23
 3.035000e+02     6.926935e-23
 3.037800e+02     9.685165e-23
 3.045000e+02     9.710987e-23
 3.060000e+02     9.772145e-23
 3.080000e+02     9.853555e-23
 3.100000e+02     9.931626e-23
 3.120000e+02     1.001283e-22
 3.150000e+02     1.018392e-22
 3.200000e+02     1.035411e-22
 3.250000e+02     1.053012e-22
 3.300000e+02     1.071928e-22
 3.400000e+02     1.101697e-22
 3.600000e+02     1.159543e-22
 3.800000e+02     1.213302e-22
 4.050000e+02     1.287429e-22
 4.250000e+02     1.355845e-22
 4.500000e+02     1.441122e-22
 4.650000e+02     1.504952e-22
 4.750000e+02     1.542698e-22
 4.820000e+02     1.569465e-22
 4.870000e+02     1.588670e-22
 4.910000e+02     1.604234e-22
 4.950000e+02     1.619907e-22
 4.980000e+02     1.631789e-22
 5.000000e+02     1.647407e-22
 5.020000e+02     1.656565e-22
 5.039800e+02     1.667803e-22
 5.100000e+02     1.698880e-22
 5.250000e+02     1.776700e-22
 5.600000e+02     1.961898e-22
 6.000000e+02     2.173915e-22
 6.500000e+02     2.453226e-22
 7.000000e+02     2.759223e-22
 7.500000e+02     3.086823e-22
 8.000000e+02     3.436054e-22
 8.300000e+02     3.670367e-22
 8.600000e+02     3.925436e-22
 8.800000e+02     4.116066e-22
 8.900000e+02     4.207753e-22
 8.960000e+02     4.279757e-22
 9.000000e+02     4.320876e-22
 9.030000e+02     4.351936e-22
 9.060000e+02     4.383196e-22
 9.090000e+02     4.414650e-22
 9.117800e+02     4.443975e-22
 9.300000e+02     5.928107e-22
 9.500000e+02     6.533689e-22
 9.750000e+02     8.986535e-22
 9.900000e+02     9.653269e-22
 1.005000e+03     1.134160e-21
 1.025000e+03     1.340664e-21
 1.045000e+03     1.567833e-21
 1.065000e+03     1.855000e-21
 1.085000e+03     2.187691e-21
 1.105000e+03     2.502863e-21
 1.125000e+03     2.874023e-21
 1.145000e+03     3.233218e-21
 1.165000e+03     3.641923e-21
 1.185000e+03     4.045785e-21
 1.205000e+03     4.448147e-21
 1.215600e+03     4.652075e-21
 1.215670e+03     4.760469e-21
 1.216000e+03     4.765961e-21
 1.218000e+03     4.799424e-21
 1.221000e+03     4.847843e-21
 1.225000e+03     4.910040e-21
 1.230000e+03     4.996768e-21
 1.240000e+03     5.197565e-21
 1.250000e+03     5.407376e-21
 1.265000e+03     5.790487e-21
 1.285000e+03     6.307160e-21
 1.305000e+03     6.849951e-21
 1.325000e+03     7.394028e-21
 1.345000e+03     7.955356e-21
 1.365000e+03     8.540128e-21
 1.385000e+03     9.121104e-21
 1.405000e+03     9.700651e-21
 1.425000e+03     1.026845e-20
 1.442000e+03     1.075148e-20
 1.455000e+03     1.113383e-20
 1.475000e+03     1.174313e-20
 1.517000e+03     1.294132e-20
 1.595000e+03     1.506127e-20
 1.672000e+03     1.712908e-20
 1.745000e+03     1.900490e-20
 1.825000e+03     2.096345e-20
 1.905000e+03     2.273667e-20
 1.984000e+03     2.429537e-20
 2.065000e+03     2.567998e-20
 2.135000e+03     2.665613e-20
 2.215000e+03     2.765502e-20
 2.295000e+03     2.857549e-20
 2.375000e+03     2.947538e-20
 2.455000e+03     3.041681e-20
 2.525000e+03     3.124023e-20
 2.605000e+03     3.219524e-20
 2.685000e+03     3.327583e-20
 2.765000e+03     3.430463e-20
 2.845000e+03     3.517291e-20
 2.950000e+03     3.651638e-20
 3.110000e+03     3.856290e-20
 3.270000e+03     4.047476e-20
 3.430000e+03     4.236572e-20
 3.590000e+03     4.419372e-20
 3.730000e+03     4.588678e-20
 3.890000e+03     4.948094e-20
 4.050000e+03     5.307906e-20
 4.210000e+03     5.890764e-20
 4.370000e+03     6.432293e-20
 4.530000e+03     6.973669e-20
 4.690000e+03     7.521815e-20
 4.850000e+03     8.020975e-20
 5.010000e+03     8.460295e-20
 5.170000e+03     8.912440e-20
 5.330000e+03     9.340351e-20
 5.490000e+03     9.763515e-20
 5.650000e+03     1.017883e-19
 5.810000e+03     1.058586e-19
 5.970000e+03     1.095360e-19
 6.130000e+03     1.131541e-19
 6.290000e+03     1.164381e-19
 6.450000e+03     1.196301e-19
 6.610000e+03     1.225332e-19
 6.770000e+03     1.254657e-19
 6.930000e+03     1.281894e-19
 7.090000e+03     1.307275e-19
 7.250000e+03     1.331373e-19
 7.410000e+03     1.354431e-19
 7.570000e+03     1.376810e-19
 7.730000e+03     1.399528e-19
 7.890000e+03     1.420721e-19
 8.050000e+03     1.441098e-19
 8.210000e+03     1.460516e-19
 8.370000e+03     1.479611e-19
 8.530000e+03     1.497280e-19
 8.690000e+03     1.514648e-19
 8.850000e+03     1.533004e-19
 9.010000e+03     1.550699e-19
 9.170000e+03     1.567750e-19
 9.330000e+03     1.585065e-19
 9.490000e+03     1.604341e-19
 9.650000e+03     1.620141e-19
 9.810000e+03     1.637243e-19
 9.970000e+03     1.653662e-19
 1.050000e+04     1.702052e-19
 1.150000e+04     1.765970e-19
 1.250000e+04     1.817078e-19
 1.350000e+04     1.855255e-19
 1.450000e+04     1.888254e-19
 1.550000e+04     1.922922e-19
 1.650000e+04     1.951923e-19
 1.750000e+04     1.962982e-19
 1.850000e+04     1.954853e-19
 1.950000e+04     1.930468e-19
 2.050000e+04     1.896794e-19
 2.150000e+04     1.857834e-19
 2.250000e+04     1.813071e-19
 2.350000e+04     1.758561e-19
 2.450000e+04     1.692757e-19
 2.550000e+04     1.632262e-19
 2.650000e+04     1.572365e-19
 2.750000e+04     1.518343e-19
 2.850000e+04     1.468167e-19
 2.950000e+04     1.420257e-19
 3.050000e+04     1.374204e-19
 3.150000e+04     1.329710e-19
 3.250000e+04     1.286452e-19
 3.350000e+04     1.244318e-19
 3.450000e+04     1.203475e-19
 3.550000e+04     1.164264e-19
 3.650000e+04     1.126468e-19
 3.750000e+04     1.091514e-19
 3.850000e+04     1.058112e-19
 3.950000e+04     1.024663e-19
 4.050000e+04     9.923943e-20
 4.150000e+04     9.611336e-20
 4.250000e+04     9.311157e-20
 4.350000e+04     9.016482e-20
 4.450000e+04     8.734273e-20
 4.550000e+04     8.478300e-20
 4.650000e+04     8.250842e-20
 4.750000e+04     8.046318e-20
 4.850000e+04     7.860930e-20
 4.950000e+04     7.696068e-20
 5.050000e+04     7.554944e-20
 5.150000e+04     7.439551e-20
 5.250000e+04     7.401709e-20
 5.350000e+04     7.521923e-20
 5.450000e+04     7.597280e-20
 5.550000e+04     7.646117e-20
 5.650000e+04     7.776602e-20
 5.750000e+04     8.045836e-20
 5.850000e+04     8.283604e-20
 5.950000e+04     8.550139e-20
 6.050000e+04     9.037421e-20
 6.150000e+04     9.843190e-20
 6.250000e+04     1.165669e-19
 6.350000e+04     1.301815e-19
 6.450000e+04     1.358473e-19
 6.550000e+04     1.381533e-19
 6.650010e+04     1.427358e-19
 6.750010e+04     1.464138e-19
 6.850010e+04     1.498763e-19
 6.950010e+04     1.550640e-19
 7.020000e+04     1.601708e-19
 7.100000e+04     1.656990e-19
 7.180000e+04     1.719538e-19
 7.260000e+04     1.786169e-19
 7.340000e+04     1.868166e-19
 7.420000e+04     1.984049e-19
 7.500000e+04     2.140315e-19
 7.580000e+04     2.328574e-19
 7.660000e+04     2.537609e-19
 7.740000e+04     2.731825e-19
 7.820000e+04     2.910286e-19
 7.900000e+04     3.066965e-19
 7.980000e+04     3.187666e-19
 8.060000e+04     3.276959e-19
 8.140000e+04     3.336553e-19
 8.220000e+04     3.380555e-19
 8.300000e+04     3.418983e-19
 8.380000e+04     3.456419e-19
 8.460000e+04     3.489863e-19
 8.540000e+04     3.528868e-19
 8.620000e+04     3.572551e-19
 8.700000e+04     3.603438e-19
 8.780000e+04     3.606482e-19
 8.860000e+04     3.584868e-19
 8.940000e+04     3.548977e-19
 9.020000e+04     3.505267e-19
 9.100000e+04     3.457712e-19
 9.180000e+04     3.408233e-19
 9.260000e+04     3.358201e-19
 9.340000e+04     3.306351e-19
 9.420000e+04     3.254474e-19
 9.500000e+04     3.204536e-19
 9.580000e+04     3.156078e-19
 9.660000e+04     3.113959e-19
 9.740000e+04     3.074193e-19
 9.820000e+04     3.029717e-19
 9.900000e+04     2.984907e-19
 9.980000e+04     2.940665e-19
 1.006000e+05     2.897885e-19
 1.020000e+05     2.829303e-19
 1.040000e+05     2.740813e-19
 1.060000e+05     2.689201e-19
 1.080000e+05     2.660831e-19
 1.100000e+05     2.650328e-19
 1.120000e+05     2.767415e-19
 1.140000e+05     3.044892e-19
 1.160000e+05     3.182271e-19
 1.180000e+05     3.200901e-19
 1.200000e+05     3.301255e-19
 1.220000e+05     3.395472e-19
 1.240000e+05     3.515464e-19
 1.260000e+05     3.663243e-19
 1.280000e+05     3.919387e-19
 1.300000e+05     4.134137e-19
 1.320000e+05     4.222819e-19
 1.340000e+05     4.224993e-19
 1.360000e+05     4.343685e-19
 1.380000e+05     4.393634e-19
 1.400000e+05     4.417464e-19
 1.420000e+05     4.500376e-19
 1.440000e+05     4.542362e-19
 1.460000e+05     4.583381e-19
 1.480000e+05     4.642017e-19
 1.500000e+05     4.685998e-19
 1.520000e+05     4.740150e-19
 1.540000e+05     4.797312e-19
 1.560000e+05     4.882167e-19
 1.580000e+05     4.962410e-19
 1.600000e+05     5.036481e-19
 1.620000e+05     5.118961e-19
 1.640000e+05     5.232674e-19
 1.660000e+05     5.383866e-19
 1.680000e+05     5.522344e-19
 1.700000e+05     5.678498e-19
 1.720000e+05     5.848380e-19
 1.740000e+05     5.998415e-19
 1.760000e+05     6.135721e-19
 1.780000e+05     6.235291e-19
 1.800000e+05     6.347160e-19
 1.820000e+05     6.451700e-19
 1.840000e+05     6.552964e-19
 1.860000e+05     6.659383e-19
 1.880000e+05     6.837107e-19
 1.900000e+05     6.963168e-19
 1.920000e+05     7.088483e-19
 1.940000e+05     7.211701e-19
 1.960000e+05     7.339502e-19
 1.980000e+05     7.486181e-19
 2.000000e+05     7.642207e-19
 2.020000e+05     7.800142e-19
 2.040000e+05     7.963829e-19
 2.060000e+05     8.138517e-19
 2.080000e+05     8.307049e-19
 2.100000e+05     8.490803e-19
 2.120000e+05     8.682596e-19
 2.140000e+05     8.876912e-19
 2.160000e+05     9.094242e-19
 2.180000e+05     9.326050e-19
 2.200000e+05     9.544002e-19
 2.220000e+05     9.779104e-19
 2.240000e+05     1.003963e-18
 2.260000e+05     1.029341e-18
 2.280000e+05     1.054647e-18
 2.300000e+05     1.082443e-18
 2.320000e+05     1.111844e-18
 2.340000e+05     1.141073e-18
 2.360000e+05     1.170613e-18
 2.380000e+05     1.202123e-18
 2.400000e+05     1.235160e-18
 2.420000e+05     1.268037e-18
 2.440000e+05     1.300805e-18
 2.460000e+05     1.335842e-18
 2.480000e+05     1.372838e-18
 2.500000e+05     1.410147e-18
 2.520000e+05     1.447490e-18
 2.540000e+05     1.486161e-18
 2.560000e+05     1.527048e-18
 2.580000e+05     1.569930e-18
 2.600000e+05     1.613935e-18
 2.620000e+05     1.657750e-18
 2.640000e+05     1.702409e-18
 2.660000e+05     1.748418e-18
 2.680000e+05     1.795857e-18
 2.700000e+05     1.844352e-18
 2.720000e+05     1.893657e-18
 2.740000e+05     1.943232e-18
 2.760000e+05     1.993697e-18
 2.780000e+05     2.046322e-18
 2.800000e+05     2.100897e-18
 2.820000e+05     2.157025e-18
 2.840000e+05     2.212948e-18
 2.860000e+05     2.267968e-18
 2.880000e+05     2.323604e-18
 2.900000e+05     2.381336e-18
 2.920000e+05     2.440351e-18
 2.940000e+05     2.500541e-18
 2.960000e+05     2.562544e-18
 2.980000e+05     2.624527e-18
 3.000000e+05     2.686488e-18
 3.020000e+05     2.750248e-18
 3.040000e+05     2.815782e-18
 3.060000e+05     2.881698e-18
 3.080000e+05     2.949540e-18
 3.100000e+05     3.017382e-18
 3.120000e+05     3.084479e-18
 3.140000e+05     3.153324e-18
 3.160000e+05     3.225421e-18
 3.180000e+05     3.297468e-18
 3.200000e+05     3.372253e-18
 3.220000e+05     3.448683e-18
 3.240000e+05     3.525845e-18
 3.260000e+05     3.605145e-18
 3.280000e+05     3.684496e-18
 3.300000e+05     3.766263e-18
 3.320000e+05     3.849214e-18
 3.340000e+05     3.940492e-18
 3.360000e+05     4.039538e-18
 3.380000e+05     4.133663e-18
 3.400000e+05     4.220312e-18
 3.420000e+05     4.307325e-18
 3.440000e+05     4.398987e-18
 3.460000e+05     4.492259e-18
 3.480000e+05     4.592693e-18
 3.500000e+05     4.699224e-18
 3.520000e+05     4.794113e-18
 3.540000e+05     4.886402e-18
 3.560000e+05     4.976192e-18
 3.580000e+05     5.063578e-18
 3.600000e+05     5.155683e-18
 3.620000e+05     5.247679e-18
 3.640000e+05     5.336241e-18
 3.660000e+05     5.425469e-18
 3.680000e+05     5.518012e-18
 3.700000e+05     5.610160e-18
 3.720000e+05     5.704234e-18
 3.740000e+05     5.799604e-18
 3.760000e+05     5.892298e-18
 3.780000e+05     5.987355e-18
 3.800000e+05     6.085134e-18
 3.820000e+05     6.184601e-18
 3.840000e+05     6.283673e-18
 3.860000e+05     6.384384e-18
 3.880000e+05     6.486383e-18
 3.900000e+05     6.588280e-18
 3.920000e+05     6.690923e-18
 4.320000e+05     8.946842e-18
 4.760000e+05     1.169964e-17
 5.250000e+05     1.494467e-17
 5.790000e+05     1.856476e-17
 6.390000e+05     2.243219e-17
 7.040000e+05     2.613666e-17
 7.760000e+05     2.936662e-17
 8.560000e+05     3.179541e-17
 9.430000e+05     3.319156e-17
 1.040000e+06     3.352144e-17
 1.147000e+06     3.282472e-17
 1.264000e+06     3.126598e-17
 1.394000e+06     2.902106e-17
 1.537000e+06     2.633732e-17
 1.694000e+06     2.343229e-17
 1.868000e+06     2.046573e-17
 2.059000e+06     1.761287e-17
 2.270000e+06     1.495936e-17
 2.503000e+06     1.257159e-17
 2.760000e+06     1.048041e-17
 3.043000e+06     8.689497e-18
 3.354000e+06     7.181336e-18
 3.698000e+06     5.917854e-18
