## EBL from Khaire & Srianand 2018; Q17 Model with alpha=-1.7 
## Column1:wavelength (Angstrom);  Column2:EBL specific intensity J_nu (erg/s/cm^2/Hz/Sr)
## ===========================================================================================
 1.000000e-08     8.362336e-37
 1.122019e-08     1.217981e-36
 1.258925e-08     1.757304e-36
 1.412538e-08     2.498377e-36
 1.584893e-08     3.492114e-36
 1.778279e-08     4.797025e-36
 1.995263e-08     6.480193e-36
 2.238721e-08     8.618411e-36
 2.511887e-08     1.129962e-35
 2.818382e-08     1.462437e-35
 3.162278e-08     1.870786e-35
 3.548135e-08     2.368196e-35
 3.981071e-08     2.969803e-35
 4.466837e-08     3.693009e-35
 5.011870e-08     4.557825e-35
 5.623413e-08     5.587348e-35
 6.309576e-08     6.808216e-35
 7.079456e-08     8.251202e-35
 7.943284e-08     9.951940e-35
 8.912505e-08     1.195160e-34
 1.000000e-07     1.429794e-34
 1.122019e-07     1.704622e-34
 1.258925e-07     2.026042e-34
 1.412538e-07     2.401482e-34
 1.584892e-07     2.839531e-34
 1.778279e-07     3.350169e-34
 1.995263e-07     3.944942e-34
 2.238721e-07     4.637234e-34
 2.511887e-07     5.442572e-34
 2.818382e-07     6.378931e-34
 3.162278e-07     7.467174e-34
 3.548136e-07     8.731456e-34
 3.981071e-07     1.019976e-33
 4.466837e-07     1.190458e-33
 5.011870e-07     1.388347e-33
 5.623413e-07     1.618008e-33
 6.309576e-07     1.884489e-33
 7.079456e-07     2.193642e-33
 7.943284e-07     2.552256e-33
 8.912505e-07     2.968187e-33
 1.000000e-06     3.450552e-33
 1.122019e-06     4.009905e-33
 1.258925e-06     4.658472e-33
 1.412538e-06     5.410447e-33
 1.584893e-06     6.282243e-33
 1.778279e-06     7.292906e-33
 1.995263e-06     8.464503e-33
 2.238721e-06     9.822580e-33
 2.511887e-06     1.139679e-32
 2.818382e-06     1.322142e-32
 3.162278e-06     1.533629e-32
 3.548136e-06     1.778748e-32
 3.981071e-06     2.062839e-32
 4.466837e-06     2.392095e-32
 5.011870e-06     2.773684e-32
 5.623413e-06     3.215925e-32
 6.309576e-06     3.728445e-32
 7.079456e-06     4.322399e-32
 7.943284e-06     5.010731e-32
 8.912505e-06     5.808414e-32
 1.000000e-05     6.732830e-32
 1.122019e-05     7.804094e-32
 1.258925e-05     9.045511e-32
 1.412538e-05     1.048413e-31
 1.584893e-05     1.215123e-31
 1.778279e-05     1.408312e-31
 1.995263e-05     1.632185e-31
 2.238721e-05     1.891610e-31
 2.511887e-05     2.192235e-31
 2.818382e-05     2.540600e-31
 3.162278e-05     2.944291e-31
 3.548135e-05     3.412087e-31
 3.981071e-05     3.954165e-31
 4.466837e-05     4.582328e-31
 5.011870e-05     5.310233e-31
 5.623413e-05     6.153731e-31
 6.309577e-05     7.131170e-31
 7.079457e-05     8.263803e-31
 7.943284e-05     9.576293e-31
 8.912505e-05     1.109718e-30
 1.000000e-04     1.285957e-30
 1.122018e-04     1.490178e-30
 1.258926e-04     1.726761e-30
 1.412538e-04     1.998331e-30
 1.584893e-04     2.310572e-30
 1.778279e-04     2.670658e-30
 1.995262e-04     3.087136e-30
 2.238722e-04     3.570046e-30
 2.511887e-04     4.131112e-30
 2.818383e-04     4.784049e-30
 3.162278e-04     5.544925e-30
 3.548134e-04     6.432618e-30
 3.981073e-04     7.469374e-30
 4.466837e-04     8.681437e-30
 5.011873e-04     1.009983e-29
 5.623413e-04     1.176127e-29
 6.309572e-04     1.370923e-29
 7.079460e-04     1.599525e-29
 7.943284e-04     1.868040e-29
 8.912510e-04     2.183721e-29
 1.000000e-03     2.555180e-29
 1.122018e-03     2.992651e-29
 1.258926e-03     3.508305e-29
 1.412538e-03     4.116607e-29
 1.584893e-03     4.834782e-29
 1.778279e-03     5.683349e-29
 1.995262e-03     6.686748e-29
 2.238722e-03     7.874111e-29
 2.511887e-03     9.280164e-29
 2.818383e-03     1.094635e-28
 3.162278e-03     1.292214e-28
 3.548133e-03     1.526656e-28
 3.981073e-03     1.805016e-28
 4.466837e-03     2.135718e-28
 5.011873e-03     2.528836e-28
 5.623413e-03     2.996425e-28
 6.309573e-03     3.552942e-28
 7.079460e-03     4.215774e-28
 7.943284e-03     5.005943e-28
 8.912510e-03     5.949067e-28
 1.000000e-02     7.076613e-28
 1.122019e-02     8.427539e-28
 1.258925e-02     1.005029e-27
 1.412538e-02     1.200532e-27
 1.584894e-02     1.436765e-27
 1.778279e-02     1.722993e-27
 1.995263e-02     2.070554e-27
 2.238721e-02     2.493163e-27
 2.511887e-02     3.007270e-27
 2.818385e-02     3.632397e-27
 3.162277e-02     4.391546e-27
 3.548136e-02     5.311727e-27
 3.981071e-02     6.424463e-27
 4.466837e-02     7.766626e-27
 5.011876e-02     9.381281e-27
 5.623413e-02     1.131884e-26
 6.309576e-02     1.363856e-26
 7.079456e-02     1.641016e-26
 7.943284e-02     1.971606e-26
 8.912515e-02     2.365380e-26
 1.000000e-01     2.833911e-26
 1.122019e-01     3.391081e-26
 1.258925e-01     4.046544e-26
 1.412538e-01     4.796628e-26
 1.584894e-01     5.634039e-26
 1.778279e-01     6.549578e-26
 1.995263e-01     7.533444e-26
 2.238721e-01     8.576058e-26
 2.511887e-01     9.668632e-26
 2.818385e-01     1.080334e-25
 3.162278e-01     1.197340e-25
 3.548135e-01     1.317311e-25
 3.981071e-01     1.439774e-25
 4.466837e-01     1.564350e-25
 5.011876e-01     1.690747e-25
 5.623413e-01     1.818749e-25
 6.309576e-01     1.948216e-25
 7.079456e-01     2.079066e-25
 7.943284e-01     2.211275e-25
 8.912515e-01     2.344860e-25
 1.000000e+00     2.479873e-25
 1.122019e+00     2.616400e-25
 1.258925e+00     2.754544e-25
 1.412538e+00     2.894424e-25
 1.584894e+00     3.036171e-25
 1.778279e+00     3.179919e-25
 1.995263e+00     3.325812e-25
 2.238721e+00     3.473989e-25
 2.511887e+00     3.624604e-25
 2.818385e+00     3.777813e-25
 3.162278e+00     3.933559e-25
 3.548136e+00     4.089416e-25
 3.981071e+00     4.250707e-25
 4.466837e+00     4.423916e-25
 5.011876e+00     4.616024e-25
 5.623413e+00     4.834475e-25
 6.309576e+00     5.086791e-25
 7.079456e+00     5.366513e-25
 7.943284e+00     5.686983e-25
 8.912516e+00     6.066403e-25
 1.000000e+01     6.526033e-25
 1.122019e+01     7.089975e-25
 1.258925e+01     7.785413e-25
 1.412538e+01     8.643294e-25
 1.584894e+01     9.698980e-25
 1.778279e+01     1.099285e-24
 1.995263e+01     1.257044e-24
 2.238721e+01     1.448175e-24
 2.511887e+01     1.677963e-24
 2.818385e+01     1.951625e-24
 3.162278e+01     2.273777e-24
 3.548135e+01     2.647716e-24
 3.981071e+01     3.074330e-24
 4.466837e+01     3.550995e-24
 5.011876e+01     4.045283e-24
 5.623413e+01     4.652033e-24
 6.309576e+01     5.273550e-24
 7.079456e+01     5.984942e-24
 7.943284e+01     6.786977e-24
 8.912515e+01     7.725811e-24
 1.000000e+02     8.818041e-24
 1.120000e+02     1.010332e-23
 1.250000e+02     1.150883e-23
 1.400000e+02     1.312127e-23
 1.550000e+02     1.472015e-23
 1.650000e+02     1.577306e-23
 1.750000e+02     1.679294e-23
 1.850000e+02     1.777832e-23
 1.900000e+02     1.826948e-23
 1.950000e+02     1.875483e-23
 2.000000e+02     1.924031e-23
 2.050000e+02     1.976985e-23
 2.100000e+02     2.040995e-23
 2.150000e+02     2.128119e-23
 2.180000e+02     2.201361e-23
 2.210000e+02     2.307279e-23
 2.240000e+02     2.445741e-23
 2.260000e+02     2.576396e-23
 2.270000e+02     2.649806e-23
 2.275000e+02     2.696595e-23
 2.278400e+02     2.726483e-23
 2.380000e+02     3.233852e-23
 2.500000e+02     3.873425e-23
 2.700000e+02     4.843194e-23
 2.900000e+02     5.819800e-23
 3.035000e+02     6.466197e-23
 3.037800e+02     8.804839e-23
 3.045000e+02     8.833115e-23
 3.060000e+02     8.897877e-23
 3.080000e+02     8.983949e-23
 3.100000e+02     9.069746e-23
 3.120000e+02     9.157939e-23
 3.150000e+02     9.332518e-23
 3.200000e+02     9.525486e-23
 3.250000e+02     9.711380e-23
 3.300000e+02     9.930677e-23
 3.400000e+02     1.026452e-22
 3.600000e+02     1.091664e-22
 3.800000e+02     1.147896e-22
 4.050000e+02     1.223336e-22
 4.250000e+02     1.283772e-22
 4.500000e+02     1.372648e-22
 4.650000e+02     1.423168e-22
 4.750000e+02     1.467828e-22
 4.820000e+02     1.496174e-22
 4.870000e+02     1.515398e-22
 4.910000e+02     1.529962e-22
 4.950000e+02     1.544787e-22
 4.980000e+02     1.555733e-22
 5.000000e+02     1.563090e-22
 5.020000e+02     1.570501e-22
 5.039800e+02     1.577791e-22
 5.100000e+02     1.607066e-22
 5.250000e+02     1.678620e-22
 5.600000e+02     1.853039e-22
 6.000000e+02     2.056218e-22
 6.500000e+02     2.325110e-22
 7.000000e+02     2.604105e-22
 7.500000e+02     2.918995e-22
 8.000000e+02     3.249843e-22
 8.300000e+02     3.467651e-22
 8.600000e+02     3.708925e-22
 8.800000e+02     3.888380e-22
 8.900000e+02     3.974632e-22
 8.960000e+02     4.027275e-22
 9.000000e+02     4.065034e-22
 9.030000e+02     4.108024e-22
 9.060000e+02     4.136818e-22
 9.090000e+02     4.165787e-22
 9.117800e+02     4.192790e-22
 9.300000e+02     5.895006e-22
 9.500000e+02     6.457033e-22
 9.750000e+02     8.225368e-22
 9.900000e+02     8.804466e-22
 1.005000e+03     1.018450e-21
 1.025000e+03     1.204787e-21
 1.045000e+03     1.407727e-21
 1.065000e+03     1.656237e-21
 1.085000e+03     1.938505e-21
 1.105000e+03     2.227330e-21
 1.125000e+03     2.556878e-21
 1.145000e+03     2.875502e-21
 1.165000e+03     3.225985e-21
 1.185000e+03     3.584200e-21
 1.205000e+03     3.939569e-21
 1.215600e+03     4.123044e-21
 1.215670e+03     4.224187e-21
 1.216000e+03     4.229204e-21
 1.218000e+03     4.259366e-21
 1.221000e+03     4.302806e-21
 1.225000e+03     4.357862e-21
 1.230000e+03     4.433496e-21
 1.240000e+03     4.614768e-21
 1.250000e+03     4.799490e-21
 1.265000e+03     5.136375e-21
 1.285000e+03     5.592993e-21
 1.305000e+03     6.075127e-21
 1.325000e+03     6.565276e-21
 1.345000e+03     7.073169e-21
 1.365000e+03     7.597555e-21
 1.385000e+03     8.119022e-21
 1.405000e+03     8.634722e-21
 1.425000e+03     9.149980e-21
 1.442000e+03     9.594508e-21
 1.455000e+03     9.943822e-21
 1.475000e+03     1.050231e-20
 1.517000e+03     1.158067e-20
 1.595000e+03     1.350799e-20
 1.672000e+03     1.543946e-20
 1.745000e+03     1.717830e-20
 1.825000e+03     1.901460e-20
 1.905000e+03     2.066806e-20
 1.984000e+03     2.217756e-20
 2.065000e+03     2.350457e-20
 2.135000e+03     2.444609e-20
 2.215000e+03     2.542048e-20
 2.295000e+03     2.633043e-20
 2.375000e+03     2.723835e-20
 2.455000e+03     2.813740e-20
 2.525000e+03     2.894451e-20
 2.605000e+03     2.987330e-20
 2.685000e+03     3.093062e-20
 2.765000e+03     3.192384e-20
 2.845000e+03     3.276953e-20
 2.950000e+03     3.407729e-20
 3.110000e+03     3.607111e-20
 3.270000e+03     3.795184e-20
 3.430000e+03     3.981327e-20
 3.590000e+03     4.161788e-20
 3.730000e+03     4.327866e-20
 3.890000e+03     4.665730e-20
 4.050000e+03     5.009021e-20
 4.210000e+03     5.568399e-20
 4.370000e+03     6.079791e-20
 4.530000e+03     6.596615e-20
 4.690000e+03     7.125645e-20
 4.850000e+03     7.610833e-20
 5.010000e+03     8.039972e-20
 5.170000e+03     8.485246e-20
 5.330000e+03     8.904917e-20
 5.490000e+03     9.323869e-20
 5.650000e+03     9.734684e-20
 5.810000e+03     1.013932e-19
 5.970000e+03     1.050739e-19
 6.130000e+03     1.086826e-19
 6.290000e+03     1.120020e-19
 6.450000e+03     1.152145e-19
 6.610000e+03     1.181559e-19
 6.770000e+03     1.211241e-19
 6.930000e+03     1.238796e-19
 7.090000e+03     1.264687e-19
 7.250000e+03     1.289255e-19
 7.410000e+03     1.312790e-19
 7.570000e+03     1.335628e-19
 7.730000e+03     1.358645e-19
 7.890000e+03     1.380399e-19
 8.050000e+03     1.401130e-19
 8.210000e+03     1.420828e-19
 8.370000e+03     1.440327e-19
 8.530000e+03     1.458364e-19
 8.690000e+03     1.476134e-19
 8.850000e+03     1.494714e-19
 9.010000e+03     1.512651e-19
 9.170000e+03     1.529917e-19
 9.330000e+03     1.547381e-19
 9.490000e+03     1.566864e-19
 9.650000e+03     1.582669e-19
 9.810000e+03     1.599843e-19
 9.970000e+03     1.616432e-19
 1.050000e+04     1.665423e-19
 1.150000e+04     1.731136e-19
 1.250000e+04     1.784167e-19
 1.350000e+04     1.824125e-19
 1.450000e+04     1.858568e-19
 1.550000e+04     1.893979e-19
 1.650000e+04     1.923787e-19
 1.750000e+04     1.936324e-19
 1.850000e+04     1.930206e-19
 1.950000e+04     1.908180e-19
 2.050000e+04     1.876695e-19
 2.150000e+04     1.839856e-19
 2.250000e+04     1.797195e-19
 2.350000e+04     1.745175e-19
 2.450000e+04     1.682128e-19
 2.550000e+04     1.623524e-19
 2.650000e+04     1.565172e-19
 2.750000e+04     1.512359e-19
 2.850000e+04     1.463093e-19
 2.950000e+04     1.415828e-19
 3.050000e+04     1.370317e-19
 3.150000e+04     1.326298e-19
 3.250000e+04     1.283481e-19
 3.350000e+04     1.241141e-19
 3.450000e+04     1.200763e-19
 3.550000e+04     1.162504e-19
 3.650000e+04     1.125648e-19
 3.750000e+04     1.090419e-19
 3.850000e+04     1.057779e-19
 3.950000e+04     1.025503e-19
 4.050000e+04     9.939718e-20
 4.150000e+04     9.631172e-20
 4.250000e+04     9.335091e-20
 4.350000e+04     9.051107e-20
 4.450000e+04     8.779169e-20
 4.550000e+04     8.516192e-20
 4.650000e+04     8.268451e-20
 4.750000e+04     8.045554e-20
 4.850000e+04     7.849757e-20
 4.950000e+04     7.677477e-20
 5.050000e+04     7.540760e-20
 5.150000e+04     7.442878e-20
 5.250000e+04     7.455194e-20
 5.350000e+04     7.600792e-20
 5.450000e+04     7.710223e-20
 5.550000e+04     7.804673e-20
 5.650000e+04     8.000571e-20
 5.750000e+04     8.287909e-20
 5.850000e+04     8.531170e-20
 5.950000e+04     8.803102e-20
 6.050000e+04     9.311455e-20
 6.150000e+04     1.018715e-19
 6.250000e+04     1.206204e-19
 6.350000e+04     1.343187e-19
 6.450000e+04     1.401036e-19
 6.550000e+04     1.420098e-19
 6.650010e+04     1.463575e-19
 6.750010e+04     1.501291e-19
 6.850010e+04     1.536706e-19
 6.950010e+04     1.594655e-19
 7.020000e+04     1.647582e-19
 7.100000e+04     1.703514e-19
 7.180000e+04     1.769464e-19
 7.260000e+04     1.841805e-19
 7.340000e+04     1.930551e-19
 7.420000e+04     2.054444e-19
 7.500000e+04     2.218421e-19
 7.580000e+04     2.411478e-19
 7.660000e+04     2.621034e-19
 7.740000e+04     2.814258e-19
 7.820000e+04     2.988795e-19
 7.900000e+04     3.137487e-19
 7.980000e+04     3.250145e-19
 8.060000e+04     3.330195e-19
 8.140000e+04     3.383904e-19
 8.220000e+04     3.422565e-19
 8.300000e+04     3.460286e-19
 8.380000e+04     3.501084e-19
 8.460000e+04     3.540750e-19
 8.540000e+04     3.585379e-19
 8.620000e+04     3.631672e-19
 8.700000e+04     3.663511e-19
 8.780000e+04     3.667435e-19
 8.860000e+04     3.646240e-19
 8.940000e+04     3.610285e-19
 9.020000e+04     3.566677e-19
 9.100000e+04     3.519870e-19
 9.180000e+04     3.471120e-19
 9.260000e+04     3.421240e-19
 9.340000e+04     3.370126e-19
 9.420000e+04     3.319703e-19
 9.500000e+04     3.271348e-19
 9.580000e+04     3.224296e-19
 9.660000e+04     3.182132e-19
 9.740000e+04     3.141242e-19
 9.820000e+04     3.095460e-19
 9.900000e+04     3.049907e-19
 9.980000e+04     3.005365e-19
 1.006000e+05     2.965021e-19
 1.020000e+05     2.899195e-19
 1.040000e+05     2.816526e-19
 1.060000e+05     2.773571e-19
 1.080000e+05     2.756013e-19
 1.100000e+05     2.750570e-19
 1.120000e+05     2.870402e-19
 1.140000e+05     3.149469e-19
 1.160000e+05     3.280372e-19
 1.180000e+05     3.281758e-19
 1.200000e+05     3.375000e-19
 1.220000e+05     3.472092e-19
 1.240000e+05     3.589252e-19
 1.260000e+05     3.735948e-19
 1.280000e+05     3.977365e-19
 1.300000e+05     4.173493e-19
 1.320000e+05     4.242900e-19
 1.340000e+05     4.246898e-19
 1.360000e+05     4.352591e-19
 1.380000e+05     4.407240e-19
 1.400000e+05     4.423823e-19
 1.420000e+05     4.513548e-19
 1.440000e+05     4.557061e-19
 1.460000e+05     4.578352e-19
 1.480000e+05     4.638171e-19
 1.500000e+05     4.674716e-19
 1.520000e+05     4.719098e-19
 1.540000e+05     4.778386e-19
 1.560000e+05     4.856508e-19
 1.580000e+05     4.930542e-19
 1.600000e+05     5.002984e-19
 1.620000e+05     5.081736e-19
 1.640000e+05     5.191874e-19
 1.660000e+05     5.340882e-19
 1.680000e+05     5.474498e-19
 1.700000e+05     5.625844e-19
 1.720000e+05     5.784391e-19
 1.740000e+05     5.930962e-19
 1.760000e+05     6.060785e-19
 1.780000e+05     6.156089e-19
 1.800000e+05     6.262462e-19
 1.820000e+05     6.368834e-19
 1.840000e+05     6.472881e-19
 1.860000e+05     6.578571e-19
 1.880000e+05     6.759753e-19
 1.900000e+05     6.887221e-19
 1.920000e+05     7.010915e-19
 1.940000e+05     7.129079e-19
 1.960000e+05     7.256180e-19
 1.980000e+05     7.393417e-19
 2.000000e+05     7.541203e-19
 2.020000e+05     7.692832e-19
 2.040000e+05     7.848193e-19
 2.060000e+05     8.013982e-19
 2.080000e+05     8.178132e-19
 2.100000e+05     8.354371e-19
 2.120000e+05     8.535571e-19
 2.140000e+05     8.718493e-19
 2.160000e+05     8.924855e-19
 2.180000e+05     9.144249e-19
 2.200000e+05     9.349722e-19
 2.220000e+05     9.570537e-19
 2.240000e+05     9.817898e-19
 2.260000e+05     1.005819e-18
 2.280000e+05     1.029537e-18
 2.300000e+05     1.055366e-18
 2.320000e+05     1.082965e-18
 2.340000e+05     1.110473e-18
 2.360000e+05     1.138179e-18
 2.380000e+05     1.167655e-18
 2.400000e+05     1.198828e-18
 2.420000e+05     1.229987e-18
 2.440000e+05     1.260659e-18
 2.460000e+05     1.293189e-18
 2.480000e+05     1.327821e-18
 2.500000e+05     1.363023e-18
 2.520000e+05     1.397865e-18
 2.540000e+05     1.433620e-18
 2.560000e+05     1.471612e-18
 2.580000e+05     1.511715e-18
 2.600000e+05     1.552737e-18
 2.620000e+05     1.593215e-18
 2.640000e+05     1.634458e-18
 2.660000e+05     1.677331e-18
 2.680000e+05     1.721758e-18
 2.700000e+05     1.766745e-18
 2.720000e+05     1.812379e-18
 2.740000e+05     1.858997e-18
 2.760000e+05     1.906876e-18
 2.780000e+05     1.956627e-18
 2.800000e+05     2.007591e-18
 2.820000e+05     2.059804e-18
 2.840000e+05     2.112572e-18
 2.860000e+05     2.164908e-18
 2.880000e+05     2.217517e-18
 2.900000e+05     2.271652e-18
 2.920000e+05     2.326758e-18
 2.940000e+05     2.383279e-18
 2.960000e+05     2.441474e-18
 2.980000e+05     2.499696e-18
 3.000000e+05     2.557702e-18
 3.020000e+05     2.617544e-18
 3.040000e+05     2.678637e-18
 3.060000e+05     2.740560e-18
 3.080000e+05     2.804028e-18
 3.100000e+05     2.867721e-18
 3.120000e+05     2.930980e-18
 3.140000e+05     2.995490e-18
 3.160000e+05     3.062824e-18
 3.180000e+05     3.130222e-18
 3.200000e+05     3.200130e-18
 3.220000e+05     3.271290e-18
 3.240000e+05     3.343368e-18
 3.260000e+05     3.417270e-18
 3.280000e+05     3.491533e-18
 3.300000e+05     3.568604e-18
 3.320000e+05     3.646259e-18
 3.340000e+05     3.731321e-18
 3.360000e+05     3.822913e-18
 3.380000e+05     3.910160e-18
 3.400000e+05     3.990542e-18
 3.420000e+05     4.071162e-18
 3.440000e+05     4.156232e-18
 3.460000e+05     4.242611e-18
 3.480000e+05     4.336500e-18
 3.500000e+05     4.437099e-18
 3.520000e+05     4.523978e-18
 3.540000e+05     4.607897e-18
 3.560000e+05     4.691208e-18
 3.580000e+05     4.771861e-18
 3.600000e+05     4.857016e-18
 3.620000e+05     4.943825e-18
 3.640000e+05     5.025013e-18
 3.660000e+05     5.108011e-18
 3.680000e+05     5.195089e-18
 3.700000e+05     5.281445e-18
 3.720000e+05     5.369496e-18
 3.740000e+05     5.458757e-18
 3.760000e+05     5.546765e-18
 3.780000e+05     5.636140e-18
 3.800000e+05     5.726252e-18
 3.820000e+05     5.819008e-18
 3.840000e+05     5.912138e-18
 3.860000e+05     6.005589e-18
 3.880000e+05     6.100763e-18
 3.900000e+05     6.196568e-18
 3.920000e+05     6.291118e-18
 4.320000e+05     8.376928e-18
 4.760000e+05     1.094708e-17
 5.250000e+05     1.401578e-17
 5.790000e+05     1.748006e-17
 6.390000e+05     2.122099e-17
 7.040000e+05     2.487128e-17
 7.760000e+05     2.814955e-17
 8.560000e+05     3.071716e-17
 9.430000e+05     3.231173e-17
 1.040000e+06     3.287262e-17
 1.147000e+06     3.240873e-17
 1.264000e+06     3.105999e-17
 1.394000e+06     2.898923e-17
 1.537000e+06     2.643462e-17
 1.694000e+06     2.361381e-17
 1.868000e+06     2.069136e-17
 2.059000e+06     1.784963e-17
 2.270000e+06     1.518301e-17
 2.503000e+06     1.276638e-17
 2.760000e+06     1.063826e-17
 3.043000e+06     8.808565e-18
 3.354000e+06     7.264290e-18
 3.698000e+06     5.969864e-18
