## EBL from Khaire & Srianand 2018; Q17 Model with alpha=-1.7 
## Column1:wavelength (Angstrom);  Column2:EBL specific intensity J_nu (erg/s/cm^2/Hz/Sr)
## ===========================================================================================
 1.000000e-08     1.039296e-37
 1.122019e-08     1.516389e-37
 1.258925e-08     2.204205e-37
 1.412538e-08     3.181236e-37
 1.584893e-08     4.545895e-37
 1.778279e-08     6.418076e-37
 1.995263e-08     8.940199e-37
 2.238721e-08     1.227824e-36
 2.511887e-08     1.662346e-36
 2.818382e-08     2.219471e-36
 3.162278e-08     2.924219e-36
 3.548135e-08     3.805161e-36
 3.981071e-08     4.894974e-36
 4.466837e-08     6.231104e-36
 5.011870e-08     7.856446e-36
 5.623413e-08     9.820312e-36
 6.309576e-08     1.217936e-35
 7.079456e-08     1.499880e-35
 7.943284e-08     1.835393e-35
 8.912505e-08     2.233151e-35
 1.000000e-07     2.703195e-35
 1.122019e-07     3.257123e-35
 1.258925e-07     3.908352e-35
 1.412538e-07     4.672439e-35
 1.584892e-07     5.567364e-35
 1.778279e-07     6.614009e-35
 1.995263e-07     7.836525e-35
 2.238721e-07     9.262898e-35
 2.511887e-07     1.092561e-34
 2.818382e-07     1.286224e-34
 3.162278e-07     1.511642e-34
 3.548136e-07     1.773866e-34
 3.981071e-07     2.078749e-34
 4.466837e-07     2.433084e-34
 5.011870e-07     2.844731e-34
 5.623413e-07     3.322815e-34
 6.309576e-07     3.877899e-34
 7.079456e-07     4.522220e-34
 7.943284e-07     5.269982e-34
 8.912505e-07     6.137617e-34
 1.000000e-06     7.144200e-34
 1.122019e-06     8.311809e-34
 1.258925e-06     9.666027e-34
 1.412538e-06     1.123655e-33
 1.584893e-06     1.305771e-33
 1.778279e-06     1.516935e-33
 1.995263e-06     1.761766e-33
 2.238721e-06     2.045607e-33
 2.511887e-06     2.374662e-33
 2.818382e-06     2.756108e-33
 3.162278e-06     3.198274e-33
 3.548136e-06     3.710803e-33
 3.981071e-06     4.304864e-33
 4.466837e-06     4.993422e-33
 5.011870e-06     5.791468e-33
 5.623413e-06     6.716410e-33
 6.309576e-06     7.788397e-33
 7.079456e-06     9.030767e-33
 7.943284e-06     1.047060e-32
 8.912505e-06     1.213922e-32
 1.000000e-05     1.407301e-32
 1.122019e-05     1.631406e-32
 1.258925e-05     1.891112e-32
 1.412538e-05     2.192079e-32
 1.584893e-05     2.540853e-32
 1.778279e-05     2.945030e-32
 1.995263e-05     3.413408e-32
 2.238721e-05     3.956175e-32
 2.511887e-05     4.585150e-32
 2.818382e-05     5.314014e-32
 3.162278e-05     6.158641e-32
 3.548135e-05     7.137403e-32
 3.981071e-05     8.271591e-32
 4.466837e-05     9.585901e-32
 5.011870e-05     1.110891e-31
 5.623413e-05     1.287380e-31
 6.309577e-05     1.491894e-31
 7.079457e-05     1.728881e-31
 7.943284e-05     2.003502e-31
 8.912505e-05     2.321727e-31
 1.000000e-04     2.690486e-31
 1.122018e-04     3.117796e-31
 1.258926e-04     3.612944e-31
 1.412538e-04     4.185538e-31
 1.584893e-04     4.846988e-31
 1.778279e-04     5.610676e-31
 1.995262e-04     6.492297e-31
 2.238722e-04     7.510520e-31
 2.511887e-04     8.687704e-31
 2.818383e-04     1.005068e-30
 3.162278e-04     1.163143e-30
 3.548134e-04     1.346788e-30
 3.981073e-04     1.560483e-30
 4.466837e-04     1.809501e-30
 5.011873e-04     2.100055e-30
 5.623413e-04     2.439465e-30
 6.309572e-04     2.836373e-30
 7.079460e-04     3.300989e-30
 7.943284e-04     3.845386e-30
 8.912510e-04     4.483871e-30
 1.000000e-03     5.233398e-30
 1.122018e-03     6.114074e-30
 1.258926e-03     7.149785e-30
 1.412538e-03     8.368865e-30
 1.584893e-03     9.805014e-30
 1.778279e-03     1.149831e-29
 1.995262e-03     1.349643e-29
 2.238722e-03     1.585614e-29
 2.511887e-03     1.864500e-29
 2.818383e-03     2.194357e-29
 3.162278e-03     2.584789e-29
 3.548133e-03     3.047243e-29
 3.981073e-03     3.595391e-29
 4.466837e-03     4.245534e-29
 5.011873e-03     5.017149e-29
 5.623413e-03     5.933506e-29
 6.309573e-03     7.022433e-29
 7.079460e-03     8.317256e-29
 7.943284e-03     9.857959e-29
 8.912510e-03     1.169272e-28
 1.000000e-02     1.387986e-28
 1.122019e-02     1.649038e-28
 1.258925e-02     1.961119e-28
 1.412538e-02     2.334944e-28
 1.584894e-02     2.783736e-28
 1.778279e-02     3.323858e-28
 1.995263e-02     3.975528e-28
 2.238721e-02     4.763582e-28
 2.511887e-02     5.718404e-28
 2.818385e-02     6.876847e-28
 3.162277e-02     8.283274e-28
 3.548136e-02     9.990779e-28
 3.981071e-02     1.206232e-27
 4.466837e-02     1.457237e-27
 5.011876e-02     1.760845e-27
 5.623413e-02     2.127329e-27
 6.309576e-02     2.568744e-27
 7.079456e-02     3.099210e-27
 7.943284e-02     3.735328e-27
 8.912515e-02     4.496610e-27
 1.000000e-01     5.406059e-27
 1.122019e-01     6.490914e-27
 1.258925e-01     7.780892e-27
 1.412538e-01     9.301422e-27
 1.584894e-01     1.107337e-26
 1.778279e-01     1.311051e-26
 1.995263e-01     1.541737e-26
 2.238721e-01     1.798828e-26
 2.511887e-01     2.080858e-26
 2.818385e-01     2.385673e-26
 3.162278e-01     2.710732e-26
 3.548135e-01     3.053393e-26
 3.981071e-01     3.411105e-26
 4.466837e-01     3.781563e-26
 5.011876e-01     4.162751e-26
 5.623413e-01     4.552976e-26
 6.309576e-01     4.950870e-26
 7.079456e-01     5.355345e-26
 7.943284e-01     5.765593e-26
 8.912515e-01     6.181037e-26
 1.000000e+00     6.601307e-26
 1.122019e+00     7.026229e-26
 1.258925e+00     7.455766e-26
 1.412538e+00     7.890026e-26
 1.584894e+00     8.329200e-26
 1.778279e+00     8.773568e-26
 1.995263e+00     9.223485e-26
 2.238721e+00     9.679326e-26
 2.511887e+00     1.014151e-25
 2.818385e+00     1.061049e-25
 3.162278e+00     1.108667e-25
 3.548136e+00     1.156912e-25
 3.981071e+00     1.205962e-25
 4.466837e+00     1.256224e-25
 5.011876e+00     1.308388e-25
 5.623413e+00     1.363516e-25
 6.309576e+00     1.423059e-25
 7.079456e+00     1.488147e-25
 7.943284e+00     1.560547e-25
 8.912516e+00     1.642549e-25
 1.000000e+01     1.737042e-25
 1.122019e+01     1.847754e-25
 1.258925e+01     1.979454e-25
 1.412538e+01     2.138093e-25
 1.584894e+01     2.330855e-25
 1.778279e+01     2.566204e-25
 1.995263e+01     2.853928e-25
 2.238721e+01     3.205144e-25
 2.511887e+01     3.632284e-25
 2.818385e+01     4.148862e-25
 3.162278e+01     4.768959e-25
 3.548135e+01     5.506296e-25
 3.981071e+01     6.372723e-25
 4.466837e+01     7.376323e-25
 5.011876e+01     8.519273e-25
 5.623413e+01     9.795584e-25
 6.309576e+01     1.118424e-24
 7.079456e+01     1.266085e-24
 7.943284e+01     1.425911e-24
 8.912515e+01     1.605682e-24
 1.000000e+02     1.803750e-24
 1.120000e+02     2.023683e-24
 1.250000e+02     2.264153e-24
 1.400000e+02     2.549364e-24
 1.550000e+02     2.833464e-24
 1.650000e+02     3.021921e-24
 1.750000e+02     3.205354e-24
 1.850000e+02     3.381876e-24
 1.900000e+02     3.468092e-24
 1.950000e+02     3.553148e-24
 2.000000e+02     3.638960e-24
 2.050000e+02     3.726756e-24
 2.100000e+02     3.821017e-24
 2.150000e+02     3.934074e-24
 2.180000e+02     4.018942e-24
 2.210000e+02     4.126537e-24
 2.240000e+02     4.268034e-24
 2.260000e+02     4.390727e-24
 2.270000e+02     4.463264e-24
 2.275000e+02     4.502302e-24
 2.278400e+02     4.529979e-24
 2.380000e+02     5.112598e-24
 2.500000e+02     5.698019e-24
 2.700000e+02     6.920986e-24
 2.900000e+02     8.275805e-24
 3.035000e+02     9.212371e-24
 3.037800e+02     1.077319e-23
 3.045000e+02     1.083469e-23
 3.060000e+02     1.096621e-23
 3.080000e+02     1.114056e-23
 3.100000e+02     1.131610e-23
 3.120000e+02     1.149082e-23
 3.150000e+02     1.175394e-23
 3.200000e+02     1.219456e-23
 3.250000e+02     1.263606e-23
 3.300000e+02     1.308690e-23
 3.400000e+02     1.402122e-23
 3.600000e+02     1.585460e-23
 3.800000e+02     1.775473e-23
 4.050000e+02     2.016967e-23
 4.250000e+02     2.202989e-23
 4.500000e+02     2.435500e-23
 4.650000e+02     2.578396e-23
 4.750000e+02     2.668944e-23
 4.820000e+02     2.736247e-23
 4.870000e+02     2.782327e-23
 4.910000e+02     2.819001e-23
 4.950000e+02     2.855340e-23
 4.980000e+02     2.882721e-23
 5.000000e+02     2.901987e-23
 5.020000e+02     2.921078e-23
 5.039800e+02     2.940272e-23
 5.100000e+02     3.000219e-23
 5.250000e+02     3.141573e-23
 5.600000e+02     3.452065e-23
 6.000000e+02     3.814834e-23
 6.500000e+02     4.251217e-23
 7.000000e+02     4.699289e-23
 7.500000e+02     5.166421e-23
 8.000000e+02     5.692459e-23
 8.300000e+02     6.042081e-23
 8.600000e+02     6.402989e-23
 8.800000e+02     6.671374e-23
 8.900000e+02     6.803753e-23
 8.960000e+02     6.884097e-23
 9.000000e+02     6.938134e-23
 9.030000e+02     6.978886e-23
 9.060000e+02     7.019846e-23
 9.090000e+02     7.073124e-23
 9.117800e+02     7.111618e-23
 9.300000e+02     1.011237e-22
 9.500000e+02     1.154869e-22
 9.750000e+02     1.593292e-22
 9.900000e+02     1.625298e-22
 1.005000e+03     1.885602e-22
 1.025000e+03     2.221181e-22
 1.045000e+03     2.549334e-22
 1.065000e+03     3.165698e-22
 1.085000e+03     3.761449e-22
 1.105000e+03     4.265516e-22
 1.125000e+03     4.874040e-22
 1.145000e+03     5.542945e-22
 1.165000e+03     6.164347e-22
 1.185000e+03     6.795024e-22
 1.205000e+03     7.518132e-22
 1.215600e+03     7.861121e-22
 1.215670e+03     7.976930e-22
 1.216000e+03     7.986682e-22
 1.218000e+03     8.050706e-22
 1.221000e+03     8.136429e-22
 1.225000e+03     8.237721e-22
 1.230000e+03     8.365706e-22
 1.240000e+03     8.694381e-22
 1.250000e+03     9.085158e-22
 1.265000e+03     9.716763e-22
 1.285000e+03     1.057096e-21
 1.305000e+03     1.148748e-21
 1.325000e+03     1.242964e-21
 1.345000e+03     1.342920e-21
 1.365000e+03     1.445692e-21
 1.385000e+03     1.545489e-21
 1.405000e+03     1.646897e-21
 1.425000e+03     1.749138e-21
 1.442000e+03     1.837863e-21
 1.455000e+03     1.908627e-21
 1.475000e+03     2.014542e-21
 1.517000e+03     2.233392e-21
 1.595000e+03     2.635755e-21
 1.672000e+03     3.044452e-21
 1.745000e+03     3.429943e-21
 1.825000e+03     3.866020e-21
 1.905000e+03     4.283952e-21
 1.984000e+03     4.688180e-21
 2.065000e+03     5.085982e-21
 2.135000e+03     5.405616e-21
 2.215000e+03     5.757678e-21
 2.295000e+03     6.100610e-21
 2.375000e+03     6.448699e-21
 2.455000e+03     6.799874e-21
 2.525000e+03     7.112365e-21
 2.605000e+03     7.474309e-21
 2.685000e+03     7.870550e-21
 2.765000e+03     8.263553e-21
 2.845000e+03     8.629421e-21
 2.950000e+03     9.154516e-21
 3.110000e+03     1.000024e-20
 3.270000e+03     1.083699e-20
 3.430000e+03     1.169950e-20
 3.590000e+03     1.254406e-20
 3.730000e+03     1.332099e-20
 3.890000e+03     1.451201e-20
 4.050000e+03     1.575923e-20
 4.210000e+03     1.748366e-20
 4.370000e+03     1.919246e-20
 4.530000e+03     2.102445e-20
 4.690000e+03     2.292795e-20
 4.850000e+03     2.485442e-20
 5.010000e+03     2.667672e-20
 5.170000e+03     2.851146e-20
 5.330000e+03     3.039551e-20
 5.490000e+03     3.227694e-20
 5.650000e+03     3.420777e-20
 5.810000e+03     3.616381e-20
 5.970000e+03     3.802862e-20
 6.130000e+03     3.991947e-20
 6.290000e+03     4.174676e-20
 6.450000e+03     4.353426e-20
 6.610000e+03     4.531365e-20
 6.770000e+03     4.705604e-20
 6.930000e+03     4.874835e-20
 7.090000e+03     5.042294e-20
 7.250000e+03     5.201858e-20
 7.410000e+03     5.358794e-20
 7.570000e+03     5.514315e-20
 7.730000e+03     5.667163e-20
 7.890000e+03     5.816403e-20
 8.050000e+03     5.963145e-20
 8.210000e+03     6.103844e-20
 8.370000e+03     6.241854e-20
 8.530000e+03     6.376240e-20
 8.690000e+03     6.506075e-20
 8.850000e+03     6.636323e-20
 9.010000e+03     6.762503e-20
 9.170000e+03     6.885442e-20
 9.330000e+03     7.008479e-20
 9.490000e+03     7.129616e-20
 9.650000e+03     7.246288e-20
 9.810000e+03     7.360912e-20
 9.970000e+03     7.473144e-20
 1.050000e+04     7.821592e-20
 1.150000e+04     8.360233e-20
 1.250000e+04     8.816384e-20
 1.350000e+04     9.191899e-20
 1.450000e+04     9.514650e-20
 1.550000e+04     9.803355e-20
 1.650000e+04     1.005700e-19
 1.750000e+04     1.024029e-19
 1.850000e+04     1.034120e-19
 1.950000e+04     1.037114e-19
 2.050000e+04     1.033505e-19
 2.150000e+04     1.025905e-19
 2.250000e+04     1.015083e-19
 2.350000e+04     1.002126e-19
 2.450000e+04     9.877760e-20
 2.550000e+04     9.725995e-20
 2.650000e+04     9.566119e-20
 2.750000e+04     9.407930e-20
 2.850000e+04     9.257070e-20
 2.950000e+04     9.108922e-20
 3.050000e+04     8.971573e-20
 3.150000e+04     8.853345e-20
 3.250000e+04     8.753327e-20
 3.350000e+04     8.676045e-20
 3.450000e+04     8.618783e-20
 3.550000e+04     8.568791e-20
 3.650000e+04     8.534163e-20
 3.750000e+04     8.505584e-20
 3.850000e+04     8.488454e-20
 3.950000e+04     8.480795e-20
 4.050000e+04     8.480172e-20
 4.150000e+04     8.485152e-20
 4.250000e+04     8.502593e-20
 4.350000e+04     8.528071e-20
 4.450000e+04     8.558025e-20
 4.550000e+04     8.592006e-20
 4.650000e+04     8.635271e-20
 4.750000e+04     8.685526e-20
 4.850000e+04     8.741107e-20
 4.950000e+04     8.801901e-20
 5.050000e+04     8.868698e-20
 5.150000e+04     8.940453e-20
 5.250000e+04     9.015421e-20
 5.350000e+04     9.049396e-20
 5.450000e+04     9.058741e-20
 5.550000e+04     9.085606e-20
 5.650000e+04     9.113257e-20
 5.750000e+04     9.179910e-20
 5.850000e+04     9.226077e-20
 5.950000e+04     9.268106e-20
 6.050000e+04     9.357263e-20
 6.150000e+04     9.689933e-20
 6.250000e+04     1.028925e-19
 6.350000e+04     1.070640e-19
 6.450000e+04     1.091863e-19
 6.550000e+04     1.110905e-19
 6.650010e+04     1.126562e-19
 6.750010e+04     1.142033e-19
 6.850010e+04     1.166101e-19
 6.950010e+04     1.192650e-19
 7.020000e+04     1.214033e-19
 7.100000e+04     1.235266e-19
 7.180000e+04     1.256845e-19
 7.260000e+04     1.284470e-19
 7.340000e+04     1.321264e-19
 7.420000e+04     1.364205e-19
 7.500000e+04     1.416078e-19
 7.580000e+04     1.479907e-19
 7.660000e+04     1.553062e-19
 7.740000e+04     1.624675e-19
 7.820000e+04     1.693369e-19
 7.900000e+04     1.757815e-19
 7.980000e+04     1.815268e-19
 8.060000e+04     1.866517e-19
 8.140000e+04     1.912433e-19
 8.220000e+04     1.952575e-19
 8.300000e+04     1.991693e-19
 8.380000e+04     2.030952e-19
 8.460000e+04     2.069017e-19
 8.540000e+04     2.108500e-19
 8.620000e+04     2.152566e-19
 8.700000e+04     2.195741e-19
 8.780000e+04     2.233855e-19
 8.860000e+04     2.264549e-19
 8.940000e+04     2.288882e-19
 9.020000e+04     2.309390e-19
 9.100000e+04     2.328698e-19
 9.180000e+04     2.345880e-19
 9.260000e+04     2.360111e-19
 9.340000e+04     2.373126e-19
 9.420000e+04     2.384456e-19
 9.500000e+04     2.393457e-19
 9.580000e+04     2.401574e-19
 9.660000e+04     2.410559e-19
 9.740000e+04     2.418144e-19
 9.820000e+04     2.420480e-19
 9.900000e+04     2.420645e-19
 9.980000e+04     2.419921e-19
 1.006000e+05     2.417978e-19
 1.020000e+05     2.412730e-19
 1.040000e+05     2.399978e-19
 1.060000e+05     2.388496e-19
 1.080000e+05     2.373889e-19
 1.100000e+05     2.360421e-19
 1.120000e+05     2.390948e-19
 1.140000e+05     2.475583e-19
 1.160000e+05     2.510590e-19
 1.180000e+05     2.526800e-19
 1.200000e+05     2.543506e-19
 1.220000e+05     2.564931e-19
 1.240000e+05     2.597790e-19
 1.260000e+05     2.651387e-19
 1.280000e+05     2.711980e-19
 1.300000e+05     2.761395e-19
 1.320000e+05     2.788637e-19
 1.340000e+05     2.822514e-19
 1.360000e+05     2.843953e-19
 1.380000e+05     2.829832e-19
 1.400000e+05     2.854559e-19
 1.420000e+05     2.876073e-19
 1.440000e+05     2.889131e-19
 1.460000e+05     2.888896e-19
 1.480000e+05     2.878335e-19
 1.500000e+05     2.894153e-19
 1.520000e+05     2.899468e-19
 1.540000e+05     2.898539e-19
 1.560000e+05     2.908075e-19
 1.580000e+05     2.915243e-19
 1.600000e+05     2.922745e-19
 1.620000e+05     2.932063e-19
 1.640000e+05     2.946739e-19
 1.660000e+05     2.975389e-19
 1.680000e+05     2.997033e-19
 1.700000e+05     3.039080e-19
 1.720000e+05     3.082796e-19
 1.740000e+05     3.113470e-19
 1.760000e+05     3.138941e-19
 1.780000e+05     3.167282e-19
 1.800000e+05     3.192499e-19
 1.820000e+05     3.217209e-19
 1.840000e+05     3.235792e-19
 1.860000e+05     3.265430e-19
 1.880000e+05     3.313304e-19
 1.900000e+05     3.351056e-19
 1.920000e+05     3.383194e-19
 1.940000e+05     3.411409e-19
 1.960000e+05     3.442147e-19
 1.980000e+05     3.478995e-19
 2.000000e+05     3.515372e-19
 2.020000e+05     3.546241e-19
 2.040000e+05     3.587511e-19
 2.060000e+05     3.628363e-19
 2.080000e+05     3.666806e-19
 2.100000e+05     3.709672e-19
 2.120000e+05     3.751590e-19
 2.140000e+05     3.793687e-19
 2.160000e+05     3.837087e-19
 2.180000e+05     3.882703e-19
 2.200000e+05     3.929250e-19
 2.220000e+05     3.976602e-19
 2.240000e+05     4.025308e-19
 2.260000e+05     4.074877e-19
 2.280000e+05     4.124792e-19
 2.300000e+05     4.176047e-19
 2.320000e+05     4.230079e-19
 2.340000e+05     4.284930e-19
 2.360000e+05     4.340201e-19
 2.380000e+05     4.397857e-19
 2.400000e+05     4.457515e-19
 2.420000e+05     4.516706e-19
 2.440000e+05     4.578592e-19
 2.460000e+05     4.642173e-19
 2.480000e+05     4.707076e-19
 2.500000e+05     4.773858e-19
 2.520000e+05     4.842672e-19
 2.540000e+05     4.912660e-19
 2.560000e+05     4.984117e-19
 2.580000e+05     5.059482e-19
 2.600000e+05     5.140033e-19
 2.620000e+05     5.220423e-19
 2.640000e+05     5.299513e-19
 2.660000e+05     5.379415e-19
 2.680000e+05     5.459953e-19
 2.700000e+05     5.541558e-19
 2.720000e+05     5.625054e-19
 2.740000e+05     5.711079e-19
 2.760000e+05     5.799466e-19
 2.780000e+05     5.888374e-19
 2.800000e+05     5.978539e-19
 2.820000e+05     6.073501e-19
 2.840000e+05     6.170649e-19
 2.860000e+05     6.266929e-19
 2.880000e+05     6.364306e-19
 2.900000e+05     6.463230e-19
 2.920000e+05     6.563640e-19
 2.940000e+05     6.665391e-19
 2.960000e+05     6.768333e-19
 2.980000e+05     6.873584e-19
 3.000000e+05     6.981618e-19
 3.020000e+05     7.091356e-19
 3.040000e+05     7.202322e-19
 3.060000e+05     7.315238e-19
 3.080000e+05     7.429931e-19
 3.100000e+05     7.546571e-19
 3.120000e+05     7.665589e-19
 3.140000e+05     7.786486e-19
 3.160000e+05     7.909070e-19
 3.180000e+05     8.033723e-19
 3.200000e+05     8.160870e-19
 3.220000e+05     8.290377e-19
 3.240000e+05     8.421980e-19
 3.260000e+05     8.556939e-19
 3.280000e+05     8.694737e-19
 3.300000e+05     8.835249e-19
 3.320000e+05     8.979322e-19
 3.340000e+05     9.138034e-19
 3.360000e+05     9.318495e-19
 3.380000e+05     9.484538e-19
 3.400000e+05     9.634495e-19
 3.420000e+05     9.783257e-19
 3.440000e+05     9.933850e-19
 3.460000e+05     1.009103e-18
 3.480000e+05     1.028535e-18
 3.500000e+05     1.049946e-18
 3.520000e+05     1.067416e-18
 3.540000e+05     1.083476e-18
 3.560000e+05     1.099641e-18
 3.580000e+05     1.116049e-18
 3.600000e+05     1.132379e-18
 3.620000e+05     1.149113e-18
 3.640000e+05     1.166001e-18
 3.660000e+05     1.183127e-18
 3.680000e+05     1.200498e-18
 3.700000e+05     1.218094e-18
 3.720000e+05     1.236310e-18
 3.740000e+05     1.253068e-18
 3.760000e+05     1.271145e-18
 3.780000e+05     1.289843e-18
 3.800000e+05     1.308323e-18
 3.820000e+05     1.327013e-18
 3.840000e+05     1.345670e-18
 3.860000e+05     1.364552e-18
 3.880000e+05     1.383956e-18
 3.900000e+05     1.403344e-18
 3.920000e+05     1.422914e-18
 4.320000e+05     1.846817e-18
 4.760000e+05     2.371954e-18
 5.250000e+05     3.013392e-18
 5.790000e+05     3.773580e-18
 6.390000e+05     4.674178e-18
 7.040000e+05     5.707931e-18
 7.760000e+05     6.956925e-18
 8.560000e+05     8.452620e-18
 9.430000e+05     1.011133e-17
 1.040000e+06     1.185666e-17
 1.147000e+06     1.351865e-17
 1.264000e+06     1.492114e-17
 1.394000e+06     1.593464e-17
 1.537000e+06     1.644465e-17
 1.694000e+06     1.641532e-17
 1.868000e+06     1.586823e-17
 2.059000e+06     1.488895e-17
 2.270000e+06     1.358496e-17
 2.503000e+06     1.208219e-17
 2.760000e+06     1.050167e-17
 3.043000e+06     8.946325e-18
 3.354000e+06     7.491626e-18
 3.698000e+06     6.174884e-18
