## EBL from Khaire & Srianand 2018; Q17 Model with alpha=-1.7 
## Column1:wavelength (Angstrom);  Column2:EBL specific intensity J_nu (erg/s/cm^2/Hz/Sr)
## ===========================================================================================
 1.000000e-08     1.669996e-38
 1.122019e-08     2.439175e-38
 1.258925e-08     3.555959e-38
 1.412538e-08     5.164436e-38
 1.584893e-08     7.457849e-38
 1.778279e-08     1.068932e-37
 1.995263e-08     1.518174e-37
 2.238721e-08     2.133603e-37
 2.511887e-08     2.963771e-37
 2.818382e-08     4.066145e-37
 3.162278e-08     5.507672e-37
 3.548135e-08     7.365402e-37
 3.981071e-08     9.727555e-37
 4.466837e-08     1.269498e-36
 5.011870e-08     1.638286e-36
 5.623413e-08     2.092314e-36
 6.309576e-08     2.646686e-36
 7.079456e-08     3.318737e-36
 7.943284e-08     4.128399e-36
 8.912505e-08     5.098581e-36
 1.000000e-07     6.255715e-36
 1.122019e-07     7.630259e-36
 1.258925e-07     9.257373e-36
 1.412538e-07     1.117775e-35
 1.584892e-07     1.343837e-35
 1.778279e-07     1.609372e-35
 1.995263e-07     1.920680e-35
 2.238721e-07     2.285056e-35
 2.511887e-07     2.710963e-35
 2.818382e-07     3.208194e-35
 3.162278e-07     3.788113e-35
 3.548136e-07     4.463877e-35
 3.981071e-07     5.250732e-35
 4.466837e-07     6.166371e-35
 5.011870e-07     7.231265e-35
 5.623413e-07     8.469188e-35
 6.309576e-07     9.907656e-35
 7.079456e-07     1.157855e-34
 7.943284e-07     1.351887e-34
 8.912505e-07     1.577143e-34
 1.000000e-06     1.838592e-34
 1.122019e-06     2.141988e-34
 1.258925e-06     2.493995e-34
 1.412538e-06     2.902351e-34
 1.584893e-06     3.376002e-34
 1.778279e-06     3.925333e-34
 1.995263e-06     4.562375e-34
 2.238721e-06     5.301056e-34
 2.511887e-06     6.157536e-34
 2.818382e-06     7.150521e-34
 3.162278e-06     8.301717e-34
 3.548136e-06     9.636254e-34
 3.981071e-06     1.118323e-33
 4.466837e-06     1.297644e-33
 5.011870e-06     1.505495e-33
 5.623413e-06     1.746411e-33
 6.309576e-06     2.025645e-33
 7.079456e-06     2.349276e-33
 7.943284e-06     2.724364e-33
 8.912505e-06     3.159072e-33
 1.000000e-05     3.662881e-33
 1.122019e-05     4.246756e-33
 1.258925e-05     4.923404e-33
 1.412538e-05     5.707579e-33
 1.584893e-05     6.616336e-33
 1.778279e-05     7.669468e-33
 1.995263e-05     8.889907e-33
 2.238721e-05     1.030421e-32
 2.511887e-05     1.194316e-32
 2.818382e-05     1.384242e-32
 3.162278e-05     1.604337e-32
 3.548135e-05     1.859386e-32
 3.981071e-05     2.154941e-32
 4.466837e-05     2.497436e-32
 5.011870e-05     2.894319e-32
 5.623413e-05     3.354233e-32
 6.309577e-05     3.887183e-32
 7.079457e-05     4.504760e-32
 7.943284e-05     5.220414e-32
 8.912505e-05     6.049702e-32
 1.000000e-04     7.010684e-32
 1.122018e-04     8.124253e-32
 1.258926e-04     9.414643e-32
 1.412538e-04     1.090916e-31
 1.584893e-04     1.263919e-31
 1.778279e-04     1.464096e-31
 1.995262e-04     1.695591e-31
 2.238722e-04     1.963174e-31
 2.511887e-04     2.272373e-31
 2.818383e-04     2.629684e-31
 3.162278e-04     3.042817e-31
 3.548134e-04     3.520971e-31
 3.981073e-04     4.075148e-31
 4.466837e-04     4.718438e-31
 5.011873e-04     5.466367e-31
 5.623413e-04     6.337281e-31
 6.309572e-04     7.352809e-31
 7.079460e-04     8.538455e-31
 7.943284e-04     9.924282e-31
 8.912510e-04     1.154582e-30
 1.000000e-03     1.344507e-30
 1.122018e-03     1.567171e-30
 1.258926e-03     1.828468e-30
 1.412538e-03     2.135376e-30
 1.584893e-03     2.496181e-30
 1.778279e-03     2.920726e-30
 1.995262e-03     3.420703e-30
 2.238722e-03     4.010012e-30
 2.511887e-03     4.705180e-30
 2.818383e-03     5.525890e-30
 3.162278e-03     6.495576e-30
 3.548133e-03     7.642146e-30
 3.981073e-03     8.998893e-30
 4.466837e-03     1.060547e-29
 5.011873e-03     1.250921e-29
 5.623413e-03     1.476663e-29
 6.309573e-03     1.744518e-29
 7.079460e-03     2.062549e-29
 7.943284e-03     2.440400e-29
 8.912510e-03     2.889632e-29
 1.000000e-02     3.424133e-29
 1.122019e-02     4.060647e-29
 1.258925e-02     4.819425e-29
 1.412538e-02     5.725127e-29
 1.584894e-02     6.807846e-29
 1.778279e-02     8.104501e-29
 1.995263e-02     9.660560e-29
 2.238721e-02     1.153196e-28
 2.511887e-02     1.378759e-28
 2.818385e-02     1.651199e-28
 3.162277e-02     1.980843e-28
 3.548136e-02     2.380256e-28
 3.981071e-02     2.864584e-28
 4.466837e-02     3.452029e-28
 5.011876e-02     4.164275e-28
 5.623413e-02     5.027035e-28
 6.309576e-02     6.070698e-28
 7.079456e-02     7.330990e-28
 7.943284e-02     8.849939e-28
 8.912515e-02     1.067684e-27
 1.000000e-01     1.286960e-27
 1.122019e-01     1.549638e-27
 1.258925e-01     1.863603e-27
 1.412538e-01     2.237394e-27
 1.584894e-01     2.680074e-27
 1.778279e-01     3.200833e-27
 1.995263e-01     3.808259e-27
 2.238721e-01     4.509378e-27
 2.511887e-01     5.308726e-27
 2.818385e-01     6.207583e-27
 3.162278e-01     7.203704e-27
 3.548135e-01     8.291664e-27
 3.981071e-01     9.463582e-27
 4.466837e-01     1.071020e-26
 5.011876e-01     1.202182e-26
 5.623413e-01     1.338905e-26
 6.309576e-01     1.480346e-26
 7.079456e-01     1.625762e-26
 7.943284e-01     1.774539e-26
 8.912515e-01     1.926174e-26
 1.000000e+00     2.080274e-26
 1.122019e+00     2.236552e-26
 1.258925e+00     2.394800e-26
 1.412538e+00     2.554896e-26
 1.584894e+00     2.716778e-26
 1.778279e+00     2.880443e-26
 1.995263e+00     3.045937e-26
 2.238721e+00     3.213336e-26
 2.511887e+00     3.382753e-26
 2.818385e+00     3.554319e-26
 3.162278e+00     3.728179e-26
 3.548136e+00     3.904396e-26
 3.981071e+00     4.083171e-26
 4.466837e+00     4.264895e-26
 5.011876e+00     4.450228e-26
 5.623413e+00     4.640330e-26
 6.309576e+00     4.837156e-26
 7.079456e+00     5.043298e-26
 7.943284e+00     5.262621e-26
 8.912516e+00     5.500402e-26
 1.000000e+01     5.763222e-26
 1.122019e+01     6.059106e-26
 1.258925e+01     6.397868e-26
 1.412538e+01     6.791772e-26
 1.584894e+01     7.256273e-26
 1.778279e+01     7.810719e-26
 1.995263e+01     8.478810e-26
 2.238721e+01     9.288762e-26
 2.511887e+01     1.027335e-25
 2.818385e+01     1.146970e-25
 3.162278e+01     1.291869e-25
 3.548135e+01     1.466389e-25
 3.981071e+01     1.674923e-25
 4.466837e+01     1.921535e-25
 5.011876e+01     2.209403e-25
 5.623413e+01     2.540125e-25
 6.309576e+01     2.913000e-25
 7.079456e+01     3.324402e-25
 7.943284e+01     3.767421e-25
 8.912515e+01     4.233049e-25
 1.000000e+02     4.718837e-25
 1.120000e+02     5.226184e-25
 1.250000e+02     5.757133e-25
 1.400000e+02     6.348898e-25
 1.550000e+02     6.923265e-25
 1.650000e+02     7.288823e-25
 1.750000e+02     7.650615e-25
 1.850000e+02     8.001857e-25
 1.900000e+02     8.175675e-25
 1.950000e+02     8.338127e-25
 2.000000e+02     8.508040e-25
 2.050000e+02     8.679631e-25
 2.100000e+02     8.857635e-25
 2.150000e+02     9.056796e-25
 2.180000e+02     9.214542e-25
 2.210000e+02     9.393881e-25
 2.240000e+02     9.621094e-25
 2.260000e+02     9.811077e-25
 2.270000e+02     9.928814e-25
 2.275000e+02     9.992147e-25
 2.278400e+02     1.003701e-24
 2.380000e+02     1.091819e-24
 2.500000e+02     1.189302e-24
 2.700000e+02     1.387507e-24
 2.900000e+02     1.610890e-24
 3.035000e+02     1.778272e-24
 3.037800e+02     1.979436e-24
 3.045000e+02     1.990714e-24
 3.060000e+02     2.014334e-24
 3.080000e+02     2.045956e-24
 3.100000e+02     2.077613e-24
 3.120000e+02     2.109198e-24
 3.150000e+02     2.156890e-24
 3.200000e+02     2.236236e-24
 3.250000e+02     2.315530e-24
 3.300000e+02     2.395266e-24
 3.400000e+02     2.563450e-24
 3.600000e+02     2.918688e-24
 3.800000e+02     3.307398e-24
 4.050000e+02     3.820519e-24
 4.250000e+02     4.249770e-24
 4.500000e+02     4.814028e-24
 4.650000e+02     5.161670e-24
 4.750000e+02     5.392826e-24
 4.820000e+02     5.554921e-24
 4.870000e+02     5.671411e-24
 4.910000e+02     5.768874e-24
 4.950000e+02     5.865786e-24
 4.980000e+02     5.937715e-24
 5.000000e+02     5.985845e-24
 5.020000e+02     6.033979e-24
 5.039800e+02     6.081071e-24
 5.100000e+02     6.230338e-24
 5.250000e+02     6.599531e-24
 5.600000e+02     7.459157e-24
 6.000000e+02     8.442005e-24
 6.500000e+02     9.663488e-24
 7.000000e+02     1.087230e-23
 7.500000e+02     1.207096e-23
 8.000000e+02     1.327255e-23
 8.300000e+02     1.401227e-23
 8.600000e+02     1.476682e-23
 8.800000e+02     1.528333e-23
 8.900000e+02     1.554704e-23
 8.960000e+02     1.570748e-23
 9.000000e+02     1.581595e-23
 9.030000e+02     1.589737e-23
 9.060000e+02     1.598472e-23
 9.090000e+02     1.606721e-23
 9.117800e+02     1.614373e-23
 9.300000e+02     1.992713e-23
 9.500000e+02     2.638678e-23
 9.750000e+02     3.607183e-23
 9.900000e+02     4.171056e-23
 1.005000e+03     4.755888e-23
 1.025000e+03     6.011261e-23
 1.045000e+03     7.043163e-23
 1.065000e+03     8.465756e-23
 1.085000e+03     1.019264e-22
 1.105000e+03     1.180702e-22
 1.125000e+03     1.389923e-22
 1.145000e+03     1.559359e-22
 1.165000e+03     1.735882e-22
 1.185000e+03     1.925200e-22
 1.205000e+03     2.147800e-22
 1.215600e+03     2.262450e-22
 1.215670e+03     2.282457e-22
 1.216000e+03     2.285305e-22
 1.218000e+03     2.304081e-22
 1.221000e+03     2.331031e-22
 1.225000e+03     2.365963e-22
 1.230000e+03     2.412440e-22
 1.240000e+03     2.520650e-22
 1.250000e+03     2.636503e-22
 1.265000e+03     2.817912e-22
 1.285000e+03     3.061356e-22
 1.305000e+03     3.349684e-22
 1.325000e+03     3.621407e-22
 1.345000e+03     3.913550e-22
 1.365000e+03     4.208228e-22
 1.385000e+03     4.490500e-22
 1.405000e+03     4.782812e-22
 1.425000e+03     5.074880e-22
 1.442000e+03     5.337761e-22
 1.455000e+03     5.541492e-22
 1.475000e+03     5.884685e-22
 1.517000e+03     6.591539e-22
 1.595000e+03     7.843360e-22
 1.672000e+03     9.107841e-22
 1.745000e+03     1.034788e-21
 1.825000e+03     1.169140e-21
 1.905000e+03     1.306110e-21
 1.984000e+03     1.437283e-21
 2.065000e+03     1.567790e-21
 2.135000e+03     1.677501e-21
 2.215000e+03     1.798293e-21
 2.295000e+03     1.918058e-21
 2.375000e+03     2.037245e-21
 2.455000e+03     2.157781e-21
 2.525000e+03     2.264172e-21
 2.605000e+03     2.387004e-21
 2.685000e+03     2.523014e-21
 2.765000e+03     2.656412e-21
 2.845000e+03     2.785053e-21
 2.950000e+03     2.972580e-21
 3.110000e+03     3.278961e-21
 3.270000e+03     3.593043e-21
 3.430000e+03     3.928791e-21
 3.590000e+03     4.269463e-21
 3.730000e+03     4.580364e-21
 3.890000e+03     5.012251e-21
 4.050000e+03     5.464273e-21
 4.210000e+03     6.062594e-21
 4.370000e+03     6.688142e-21
 4.530000e+03     7.324048e-21
 4.690000e+03     8.042022e-21
 4.850000e+03     8.787502e-21
 5.010000e+03     9.483388e-21
 5.170000e+03     1.021729e-20
 5.330000e+03     1.096661e-20
 5.490000e+03     1.171933e-20
 5.650000e+03     1.249676e-20
 5.810000e+03     1.330928e-20
 5.970000e+03     1.409659e-20
 6.130000e+03     1.489045e-20
 6.290000e+03     1.568272e-20
 6.450000e+03     1.647112e-20
 6.610000e+03     1.724844e-20
 6.770000e+03     1.803836e-20
 6.930000e+03     1.881162e-20
 7.090000e+03     1.957090e-20
 7.250000e+03     2.031763e-20
 7.410000e+03     2.106820e-20
 7.570000e+03     2.180283e-20
 7.730000e+03     2.253557e-20
 7.890000e+03     2.325950e-20
 8.050000e+03     2.396831e-20
 8.210000e+03     2.467439e-20
 8.370000e+03     2.536327e-20
 8.530000e+03     2.604288e-20
 8.690000e+03     2.670627e-20
 8.850000e+03     2.736417e-20
 9.010000e+03     2.801414e-20
 9.170000e+03     2.864978e-20
 9.330000e+03     2.928554e-20
 9.490000e+03     2.991228e-20
 9.650000e+03     3.052484e-20
 9.810000e+03     3.112367e-20
 9.970000e+03     3.172737e-20
 1.050000e+04     3.359929e-20
 1.150000e+04     3.675941e-20
 1.250000e+04     3.949785e-20
 1.350000e+04     4.184199e-20
 1.450000e+04     4.389237e-20
 1.550000e+04     4.572070e-20
 1.650000e+04     4.734827e-20
 1.750000e+04     4.865211e-20
 1.850000e+04     4.962414e-20
 1.950000e+04     5.029608e-20
 2.050000e+04     5.071806e-20
 2.150000e+04     5.095338e-20
 2.250000e+04     5.099564e-20
 2.350000e+04     5.084641e-20
 2.450000e+04     5.046230e-20
 2.550000e+04     4.990591e-20
 2.650000e+04     4.931300e-20
 2.750000e+04     4.873419e-20
 2.850000e+04     4.822354e-20
 2.950000e+04     4.774448e-20
 3.050000e+04     4.727338e-20
 3.150000e+04     4.681131e-20
 3.250000e+04     4.636898e-20
 3.350000e+04     4.595865e-20
 3.450000e+04     4.559063e-20
 3.550000e+04     4.526864e-20
 3.650000e+04     4.499571e-20
 3.750000e+04     4.478037e-20
 3.850000e+04     4.463132e-20
 3.950000e+04     4.454627e-20
 4.050000e+04     4.449986e-20
 4.150000e+04     4.448786e-20
 4.250000e+04     4.451156e-20
 4.350000e+04     4.456618e-20
 4.450000e+04     4.462622e-20
 4.550000e+04     4.469664e-20
 4.650000e+04     4.476281e-20
 4.750000e+04     4.484007e-20
 4.850000e+04     4.494750e-20
 4.950000e+04     4.509241e-20
 5.050000e+04     4.527123e-20
 5.150000e+04     4.547448e-20
 5.250000e+04     4.569501e-20
 5.350000e+04     4.591673e-20
 5.450000e+04     4.612095e-20
 5.550000e+04     4.635198e-20
 5.650000e+04     4.659814e-20
 5.750000e+04     4.687798e-20
 5.850000e+04     4.713477e-20
 5.950000e+04     4.741365e-20
 6.050000e+04     4.777442e-20
 6.150000e+04     4.848900e-20
 6.250000e+04     4.970370e-20
 6.350000e+04     5.064320e-20
 6.450000e+04     5.125896e-20
 6.550000e+04     5.179598e-20
 6.650010e+04     5.233655e-20
 6.750010e+04     5.294302e-20
 6.850010e+04     5.347857e-20
 6.950010e+04     5.407049e-20
 7.020000e+04     5.468175e-20
 7.100000e+04     5.531113e-20
 7.180000e+04     5.595992e-20
 7.260000e+04     5.672318e-20
 7.340000e+04     5.755930e-20
 7.420000e+04     5.847274e-20
 7.500000e+04     5.954208e-20
 7.580000e+04     6.098079e-20
 7.660000e+04     6.260691e-20
 7.740000e+04     6.418932e-20
 7.820000e+04     6.575620e-20
 7.900000e+04     6.727547e-20
 7.980000e+04     6.871237e-20
 8.060000e+04     6.997315e-20
 8.140000e+04     7.111012e-20
 8.220000e+04     7.217909e-20
 8.300000e+04     7.325153e-20
 8.380000e+04     7.433291e-20
 8.460000e+04     7.544811e-20
 8.540000e+04     7.658894e-20
 8.620000e+04     7.772630e-20
 8.700000e+04     7.883624e-20
 8.780000e+04     7.985574e-20
 8.860000e+04     8.079481e-20
 8.940000e+04     8.164087e-20
 9.020000e+04     8.241291e-20
 9.100000e+04     8.309356e-20
 9.180000e+04     8.370105e-20
 9.260000e+04     8.426073e-20
 9.340000e+04     8.477368e-20
 9.420000e+04     8.525107e-20
 9.500000e+04     8.574695e-20
 9.580000e+04     8.630520e-20
 9.660000e+04     8.691260e-20
 9.740000e+04     8.745930e-20
 9.820000e+04     8.794036e-20
 9.900000e+04     8.840767e-20
 9.980000e+04     8.885526e-20
 1.006000e+05     8.929153e-20
 1.020000e+05     9.013068e-20
 1.040000e+05     9.140450e-20
 1.060000e+05     9.267531e-20
 1.080000e+05     9.402266e-20
 1.100000e+05     9.551755e-20
 1.120000e+05     9.779459e-20
 1.140000e+05     1.011568e-19
 1.160000e+05     1.037157e-19
 1.180000e+05     1.058126e-19
 1.200000e+05     1.080111e-19
 1.220000e+05     1.104843e-19
 1.240000e+05     1.123875e-19
 1.260000e+05     1.148474e-19
 1.280000e+05     1.178091e-19
 1.300000e+05     1.204415e-19
 1.320000e+05     1.222402e-19
 1.340000e+05     1.240067e-19
 1.360000e+05     1.251822e-19
 1.380000e+05     1.262438e-19
 1.400000e+05     1.273412e-19
 1.420000e+05     1.279559e-19
 1.440000e+05     1.288336e-19
 1.460000e+05     1.290859e-19
 1.480000e+05     1.291861e-19
 1.500000e+05     1.293548e-19
 1.520000e+05     1.294700e-19
 1.540000e+05     1.292822e-19
 1.560000e+05     1.298049e-19
 1.580000e+05     1.294236e-19
 1.600000e+05     1.293728e-19
 1.620000e+05     1.296645e-19
 1.640000e+05     1.302502e-19
 1.660000e+05     1.308698e-19
 1.680000e+05     1.313279e-19
 1.700000e+05     1.321908e-19
 1.720000e+05     1.331772e-19
 1.740000e+05     1.342487e-19
 1.760000e+05     1.351940e-19
 1.780000e+05     1.359550e-19
 1.800000e+05     1.366158e-19
 1.820000e+05     1.373174e-19
 1.840000e+05     1.382634e-19
 1.860000e+05     1.394439e-19
 1.880000e+05     1.407941e-19
 1.900000e+05     1.416879e-19
 1.920000e+05     1.421784e-19
 1.940000e+05     1.428802e-19
 1.960000e+05     1.438307e-19
 1.980000e+05     1.447384e-19
 2.000000e+05     1.456720e-19
 2.020000e+05     1.464728e-19
 2.040000e+05     1.470497e-19
 2.060000e+05     1.476785e-19
 2.080000e+05     1.483731e-19
 2.100000e+05     1.492970e-19
 2.120000e+05     1.502255e-19
 2.140000e+05     1.509776e-19
 2.160000e+05     1.516751e-19
 2.180000e+05     1.523162e-19
 2.200000e+05     1.530216e-19
 2.220000e+05     1.537884e-19
 2.240000e+05     1.546118e-19
 2.260000e+05     1.553744e-19
 2.280000e+05     1.561690e-19
 2.300000e+05     1.569831e-19
 2.320000e+05     1.578104e-19
 2.340000e+05     1.586950e-19
 2.360000e+05     1.596571e-19
 2.380000e+05     1.606562e-19
 2.400000e+05     1.616799e-19
 2.420000e+05     1.627216e-19
 2.440000e+05     1.636246e-19
 2.460000e+05     1.646646e-19
 2.480000e+05     1.658553e-19
 2.500000e+05     1.671065e-19
 2.520000e+05     1.683934e-19
 2.540000e+05     1.697172e-19
 2.560000e+05     1.710661e-19
 2.580000e+05     1.724897e-19
 2.600000e+05     1.740546e-19
 2.620000e+05     1.756039e-19
 2.640000e+05     1.771435e-19
 2.660000e+05     1.787648e-19
 2.680000e+05     1.804162e-19
 2.700000e+05     1.820839e-19
 2.720000e+05     1.837835e-19
 2.740000e+05     1.855499e-19
 2.760000e+05     1.873978e-19
 2.780000e+05     1.893043e-19
 2.800000e+05     1.912237e-19
 2.820000e+05     1.931712e-19
 2.840000e+05     1.951695e-19
 2.860000e+05     1.972704e-19
 2.880000e+05     1.993797e-19
 2.900000e+05     2.014660e-19
 2.920000e+05     2.036102e-19
 2.940000e+05     2.057969e-19
 2.960000e+05     2.080021e-19
 2.980000e+05     2.102248e-19
 3.000000e+05     2.124717e-19
 3.020000e+05     2.147580e-19
 3.040000e+05     2.170950e-19
 3.060000e+05     2.194723e-19
 3.080000e+05     2.218923e-19
 3.100000e+05     2.243362e-19
 3.120000e+05     2.268050e-19
 3.140000e+05     2.293375e-19
 3.160000e+05     2.319095e-19
 3.180000e+05     2.345032e-19
 3.200000e+05     2.371408e-19
 3.220000e+05     2.398410e-19
 3.240000e+05     2.426043e-19
 3.260000e+05     2.454257e-19
 3.280000e+05     2.482997e-19
 3.300000e+05     2.512262e-19
 3.320000e+05     2.542427e-19
 3.340000e+05     2.575392e-19
 3.360000e+05     2.612508e-19
 3.380000e+05     2.646181e-19
 3.400000e+05     2.677836e-19
 3.420000e+05     2.709726e-19
 3.440000e+05     2.742265e-19
 3.460000e+05     2.775777e-19
 3.480000e+05     2.815084e-19
 3.500000e+05     2.858431e-19
 3.520000e+05     2.894942e-19
 3.540000e+05     2.930805e-19
 3.560000e+05     2.966430e-19
 3.580000e+05     3.001609e-19
 3.600000e+05     3.037956e-19
 3.620000e+05     3.074969e-19
 3.640000e+05     3.112457e-19
 3.660000e+05     3.149933e-19
 3.680000e+05     3.187816e-19
 3.700000e+05     3.226938e-19
 3.720000e+05     3.265902e-19
 3.740000e+05     3.305525e-19
 3.760000e+05     3.345546e-19
 3.780000e+05     3.386245e-19
 3.800000e+05     3.426717e-19
 3.820000e+05     3.469421e-19
 3.840000e+05     3.509582e-19
 3.860000e+05     3.551728e-19
 3.880000e+05     3.595253e-19
 3.900000e+05     3.638565e-19
 3.920000e+05     3.681995e-19
 4.320000e+05     4.643818e-19
 4.760000e+05     5.891259e-19
 5.250000e+05     7.493526e-19
 5.790000e+05     9.489449e-19
 6.390000e+05     1.193999e-18
 7.040000e+05     1.480749e-18
 7.760000e+05     1.828746e-18
 8.560000e+05     2.262531e-18
 9.430000e+05     2.787893e-18
 1.040000e+06     3.426241e-18
 1.147000e+06     4.164294e-18
 1.264000e+06     4.962434e-18
 1.394000e+06     5.775169e-18
 1.537000e+06     6.521351e-18
 1.694000e+06     7.126536e-18
 1.868000e+06     7.533302e-18
 2.059000e+06     7.700505e-18
 2.270000e+06     7.619825e-18
 2.503000e+06     7.308889e-18
 2.760000e+06     6.808528e-18
 3.043000e+06     6.173922e-18
 3.354000e+06     5.464087e-18
 3.698000e+06     4.726751e-18
