## EBL from Khaire & Srianand 2018; Q17 Model with alpha=-1.7 
## Column1:wavelength (Angstrom);  Column2:EBL specific intensity J_nu (erg/s/cm^2/Hz/Sr)
## ===========================================================================================
 1.000000e-08     2.728389e-37
 1.122019e-08     3.966858e-37
 1.258925e-08     5.680212e-37
 1.412538e-08     7.977021e-37
 1.584893e-08     1.098605e-36
 1.778279e-08     1.485731e-36
 1.995263e-08     1.976354e-36
 2.238721e-08     2.590250e-36
 2.511887e-08     3.350050e-36
 2.818382e-08     4.281606e-36
 3.162278e-08     5.414550e-36
 3.548135e-08     6.782845e-36
 3.981071e-08     8.425531e-36
 4.466837e-08     1.038759e-35
 5.011870e-08     1.272082e-35
 5.623413e-08     1.548516e-35
 6.309576e-08     1.874976e-35
 7.079456e-08     2.259468e-35
 7.943284e-08     2.711265e-35
 8.912505e-08     3.241092e-35
 1.000000e-07     3.861396e-35
 1.122019e-07     4.586580e-35
 1.258925e-07     5.433332e-35
 1.412538e-07     6.421024e-35
 1.584892e-07     7.572060e-35
 1.778279e-07     8.912470e-35
 1.995263e-07     1.047238e-34
 2.238721e-07     1.228669e-34
 2.511887e-07     1.439591e-34
 2.818382e-07     1.684693e-34
 3.162278e-07     1.969417e-34
 3.548136e-07     2.300064e-34
 3.981071e-07     2.683932e-34
 4.466837e-07     3.129496e-34
 5.011870e-07     3.646555e-34
 5.623413e-07     4.246488e-34
 6.309576e-07     4.942465e-34
 7.079456e-07     5.749747e-34
 7.943284e-07     6.686040e-34
 8.912505e-07     7.771832e-34
 1.000000e-06     9.030902e-34
 1.122019e-06     1.049078e-33
 1.258925e-06     1.218334e-33
 1.412538e-06     1.414560e-33
 1.584893e-06     1.642038e-33
 1.778279e-06     1.905734e-33
 1.995263e-06     2.211403e-33
 2.238721e-06     2.565707e-33
 2.511887e-06     2.976378e-33
 2.818382e-06     3.452361e-33
 3.162278e-06     4.004038e-33
 3.548136e-06     4.643429e-33
 3.981071e-06     5.384456e-33
 4.466837e-06     6.243274e-33
 5.011870e-06     7.238573e-33
 5.623413e-06     8.392047e-33
 6.309576e-06     9.728807e-33
 7.079456e-06     1.127794e-32
 7.943284e-06     1.307320e-32
 8.912505e-06     1.515365e-32
 1.000000e-05     1.756459e-32
 1.122019e-05     2.035851e-32
 1.258925e-05     2.359617e-32
 1.412538e-05     2.734811e-32
 1.584893e-05     3.169590e-32
 1.778279e-05     3.673423e-32
 1.995263e-05     4.257275e-32
 2.238721e-05     4.933843e-32
 2.511887e-05     5.717860e-32
 2.818382e-05     6.626374e-32
 3.162278e-05     7.679170e-32
 3.548135e-05     8.899145e-32
 3.981071e-05     1.031284e-31
 4.466837e-05     1.195103e-31
 5.011870e-05     1.384934e-31
 5.623413e-05     1.604909e-31
 6.309577e-05     1.859814e-31
 7.079457e-05     2.155192e-31
 7.943284e-05     2.497475e-31
 8.912505e-05     2.894103e-31
 1.000000e-04     3.353714e-31
 1.122018e-04     3.886299e-31
 1.258926e-04     4.502788e-31
 1.412538e-04     5.203928e-31
 1.584893e-04     6.010595e-31
 1.778279e-04     6.944187e-31
 1.995262e-04     8.028014e-31
 2.238722e-04     9.288561e-31
 2.511887e-04     1.075654e-30
 2.818383e-04     1.246796e-30
 3.162278e-04     1.446522e-30
 3.548134e-04     1.679832e-30
 3.981073e-04     1.952639e-30
 4.466837e-04     2.271929e-30
 5.011873e-04     2.645978e-30
 5.623413e-04     3.084585e-30
 6.309572e-04     3.599367e-30
 7.079460e-04     4.204106e-30
 7.943284e-04     4.915150e-30
 8.912510e-04     5.751926e-30
 1.000000e-03     6.737515e-30
 1.122018e-03     7.899356e-30
 1.258926e-03     9.270117e-30
 1.412538e-03     1.088864e-29
 1.584893e-03     1.280120e-29
 1.778279e-03     1.506296e-29
 1.995262e-03     1.773966e-29
 2.238722e-03     2.090969e-29
 2.511887e-03     2.466653e-29
 2.818383e-03     2.912183e-29
 3.162278e-03     3.440888e-29
 3.548133e-03     4.068681e-29
 3.981073e-03     4.814590e-29
 4.466837e-03     5.701340e-29
 5.011873e-03     6.756135e-29
 5.623413e-03     8.011554e-29
 6.309573e-03     9.506746e-29
 7.079460e-03     1.128898e-28
 7.943284e-03     1.341572e-28
 8.912510e-03     1.595755e-28
 1.000000e-02     1.900193e-28
 1.122019e-02     2.265797e-28
 1.258925e-02     2.706212e-28
 1.412538e-02     3.238483e-28
 1.584894e-02     3.883710e-28
 1.778279e-02     4.667764e-28
 1.995263e-02     5.622014e-28
 2.238721e-02     6.783979e-28
 2.511887e-02     8.198157e-28
 2.818385e-02     9.916828e-28
 3.162277e-02     1.200108e-27
 3.548136e-02     1.452221e-27
 3.981071e-02     1.756318e-27
 4.466837e-02     2.122091e-27
 5.011876e-02     2.560876e-27
 5.623413e-02     3.085972e-27
 6.309576e-02     3.713066e-27
 7.079456e-02     4.460670e-27
 7.943284e-02     5.350757e-27
 8.912515e-02     6.409390e-27
 1.000000e-01     7.667577e-27
 1.122019e-01     9.163318e-27
 1.258925e-01     1.089875e-26
 1.412538e-01     1.282599e-26
 1.584894e-01     1.491161e-26
 1.778279e-01     1.713043e-26
 1.995263e-01     1.946208e-26
 2.238721e-01     2.188920e-26
 2.511887e-01     2.439686e-26
 2.818385e-01     2.697211e-26
 3.162278e-01     2.960400e-26
 3.548135e-01     3.228357e-26
 3.981071e-01     3.500369e-26
 4.466837e-01     3.775906e-26
 5.011876e-01     4.054597e-26
 5.623413e-01     4.336214e-26
 6.309576e-01     4.620655e-26
 7.079456e-01     4.907930e-26
 7.943284e-01     5.198137e-26
 8.912515e-01     5.491440e-26
 1.000000e+00     5.788051e-26
 1.122019e+00     6.088227e-26
 1.258925e+00     6.392233e-26
 1.412538e+00     6.700357e-26
 1.584894e+00     7.012874e-26
 1.778279e+00     7.330051e-26
 1.995263e+00     7.652147e-26
 2.238721e+00     7.979382e-26
 2.511887e+00     8.311956e-26
 2.818385e+00     8.650029e-26
 3.162278e+00     8.991535e-26
 3.548136e+00     9.326695e-26
 3.981071e+00     9.686536e-26
 4.466837e+00     1.009057e-25
 5.011876e+00     1.055380e-25
 5.623413e+00     1.109051e-25
 6.309576e+00     1.171028e-25
 7.079456e+00     1.235687e-25
 7.943284e+00     1.310218e-25
 8.912516e+00     1.399623e-25
 1.000000e+01     1.507892e-25
 1.122019e+01     1.637543e-25
 1.258925e+01     1.790263e-25
 1.412538e+01     1.969885e-25
 1.584894e+01     2.176256e-25
 1.778279e+01     2.403674e-25
 1.995263e+01     2.648352e-25
 2.238721e+01     2.926996e-25
 2.511887e+01     3.183850e-25
 2.818385e+01     3.459885e-25
 3.162278e+01     3.687806e-25
 3.548135e+01     3.881827e-25
 3.981071e+01     4.019367e-25
 4.466837e+01     4.092528e-25
 5.011876e+01     4.115557e-25
 5.623413e+01     4.091068e-25
 6.309576e+01     4.035392e-25
 7.079456e+01     3.962257e-25
 7.943284e+01     3.883543e-25
 8.912515e+01     3.807422e-25
 1.000000e+02     3.735666e-25
 1.120000e+02     3.670047e-25
 1.250000e+02     3.610615e-25
 1.400000e+02     3.553978e-25
 1.550000e+02     3.508886e-25
 1.650000e+02     3.483973e-25
 1.750000e+02     3.463378e-25
 1.850000e+02     3.451183e-25
 1.900000e+02     3.456796e-25
 1.950000e+02     3.484432e-25
 2.000000e+02     3.560923e-25
 2.050000e+02     3.748239e-25
 2.100000e+02     4.169358e-25
 2.150000e+02     5.071476e-25
 2.180000e+02     6.023593e-25
 2.210000e+02     7.471186e-25
 2.240000e+02     9.647012e-25
 2.260000e+02     1.165180e-24
 2.270000e+02     1.286938e-24
 2.275000e+02     1.354201e-24
 2.278400e+02     1.402048e-24
 2.380000e+02     1.258273e-23
 2.500000e+02     2.566759e-23
 2.700000e+02     4.075034e-23
 2.900000e+02     5.142463e-23
 3.035000e+02     5.711433e-23
 3.037800e+02     9.497027e-23
 3.045000e+02     9.358916e-23
 3.060000e+02     9.139669e-23
 3.080000e+02     8.857830e-23
 3.100000e+02     8.625280e-23
 3.120000e+02     8.399536e-23
 3.150000e+02     8.117965e-23
 3.200000e+02     7.766483e-23
 3.250000e+02     7.519167e-23
 3.300000e+02     7.366155e-23
 3.400000e+02     7.252807e-23
 3.600000e+02     7.477305e-23
 3.800000e+02     7.930587e-23
 4.050000e+02     8.566159e-23
 4.250000e+02     9.089952e-23
 4.500000e+02     9.746796e-23
 4.650000e+02     1.013830e-22
 4.750000e+02     1.039609e-22
 4.820000e+02     1.057967e-22
 4.870000e+02     1.071253e-22
 4.910000e+02     1.081986e-22
 4.950000e+02     1.091882e-22
 4.980000e+02     1.099922e-22
 5.000000e+02     1.104988e-22
 5.020000e+02     1.110068e-22
 5.039800e+02     1.115770e-22
 5.100000e+02     1.161770e-22
 5.250000e+02     1.255202e-22
 5.600000e+02     1.417030e-22
 6.000000e+02     1.565300e-22
 6.500000e+02     1.733382e-22
 7.000000e+02     1.914345e-22
 7.500000e+02     2.131561e-22
 8.000000e+02     2.408211e-22
 8.300000e+02     2.612622e-22
 8.600000e+02     2.856934e-22
 8.800000e+02     3.044185e-22
 8.900000e+02     3.147797e-22
 8.960000e+02     3.211584e-22
 9.000000e+02     3.255878e-22
 9.030000e+02     3.289302e-22
 9.060000e+02     3.324521e-22
 9.090000e+02     3.358715e-22
 9.117800e+02     3.392335e-22
 9.300000e+02     8.315101e-22
 9.500000e+02     1.450010e-21
 9.750000e+02     2.557326e-21
 9.900000e+02     3.070053e-21
 1.005000e+03     3.697151e-21
 1.025000e+03     4.801668e-21
 1.045000e+03     5.754506e-21
 1.065000e+03     7.089047e-21
 1.085000e+03     8.430800e-21
 1.105000e+03     9.742018e-21
 1.125000e+03     1.116079e-20
 1.145000e+03     1.242778e-20
 1.165000e+03     1.386933e-20
 1.185000e+03     1.510437e-20
 1.205000e+03     1.634679e-20
 1.215600e+03     1.694707e-20
 1.215670e+03     1.827307e-20
 1.216000e+03     1.828574e-20
 1.218000e+03     1.835489e-20
 1.221000e+03     1.843830e-20
 1.225000e+03     1.853807e-20
 1.230000e+03     1.870493e-20
 1.240000e+03     1.917665e-20
 1.250000e+03     1.973015e-20
 1.265000e+03     2.078368e-20
 1.285000e+03     2.213826e-20
 1.305000e+03     2.361837e-20
 1.325000e+03     2.492911e-20
 1.345000e+03     2.633771e-20
 1.365000e+03     2.766872e-20
 1.385000e+03     2.904180e-20
 1.405000e+03     3.022343e-20
 1.425000e+03     3.128794e-20
 1.442000e+03     3.227633e-20
 1.455000e+03     3.303454e-20
 1.475000e+03     3.426125e-20
 1.517000e+03     3.626744e-20
 1.595000e+03     3.939787e-20
 1.672000e+03     4.215765e-20
 1.745000e+03     4.449416e-20
 1.825000e+03     4.671745e-20
 1.905000e+03     4.831320e-20
 1.984000e+03     4.963543e-20
 2.065000e+03     5.063118e-20
 2.135000e+03     5.111397e-20
 2.215000e+03     5.164693e-20
 2.295000e+03     5.201491e-20
 2.375000e+03     5.238810e-20
 2.455000e+03     5.282130e-20
 2.525000e+03     5.315773e-20
 2.605000e+03     5.365908e-20
 2.685000e+03     5.443162e-20
 2.765000e+03     5.492043e-20
 2.845000e+03     5.528432e-20
 2.950000e+03     5.594719e-20
 3.110000e+03     5.689271e-20
 3.270000e+03     5.761698e-20
 3.430000e+03     5.821283e-20
 3.590000e+03     5.869373e-20
 3.730000e+03     5.954046e-20
 3.890000e+03     6.330078e-20
 4.050000e+03     6.735619e-20
 4.210000e+03     7.302742e-20
 4.370000e+03     7.785689e-20
 4.530000e+03     8.236816e-20
 4.690000e+03     8.653008e-20
 4.850000e+03     8.954295e-20
 5.010000e+03     9.233197e-20
 5.170000e+03     9.475726e-20
 5.330000e+03     9.703792e-20
 5.490000e+03     9.910461e-20
 5.650000e+03     1.010702e-19
 5.810000e+03     1.029952e-19
 5.970000e+03     1.044771e-19
 6.130000e+03     1.059665e-19
 6.290000e+03     1.072534e-19
 6.450000e+03     1.083972e-19
 6.610000e+03     1.094273e-19
 6.770000e+03     1.105086e-19
 6.930000e+03     1.114600e-19
 7.090000e+03     1.122866e-19
 7.250000e+03     1.130417e-19
 7.410000e+03     1.137670e-19
 7.570000e+03     1.145133e-19
 7.730000e+03     1.153271e-19
 7.890000e+03     1.160723e-19
 8.050000e+03     1.167241e-19
 8.210000e+03     1.173909e-19
 8.370000e+03     1.180214e-19
 8.530000e+03     1.186023e-19
 8.690000e+03     1.192172e-19
 8.850000e+03     1.200267e-19
 9.010000e+03     1.207601e-19
 9.170000e+03     1.214348e-19
 9.330000e+03     1.223488e-19
 9.490000e+03     1.232363e-19
 9.650000e+03     1.239651e-19
 9.810000e+03     1.247375e-19
 9.970000e+03     1.255002e-19
 1.050000e+04     1.273620e-19
 1.150000e+04     1.290488e-19
 1.250000e+04     1.299227e-19
 1.350000e+04     1.303630e-19
 1.450000e+04     1.308737e-19
 1.550000e+04     1.321815e-19
 1.650000e+04     1.330341e-19
 1.750000e+04     1.324760e-19
 1.850000e+04     1.304788e-19
 1.950000e+04     1.273216e-19
 2.050000e+04     1.238676e-19
 2.150000e+04     1.201698e-19
 2.250000e+04     1.161304e-19
 2.350000e+04     1.110737e-19
 2.450000e+04     1.053768e-19
 2.550000e+04     1.005751e-19
 2.650000e+04     9.602487e-20
 2.750000e+04     9.226605e-20
 2.850000e+04     8.890271e-20
 2.950000e+04     8.583679e-20
 3.050000e+04     8.301168e-20
 3.150000e+04     8.040345e-20
 3.250000e+04     7.797713e-20
 3.350000e+04     7.572025e-20
 3.450000e+04     7.363746e-20
 3.550000e+04     7.173832e-20
 3.650000e+04     6.999443e-20
 3.750000e+04     6.841494e-20
 3.850000e+04     6.701527e-20
 3.950000e+04     6.584251e-20
 4.050000e+04     6.490398e-20
 4.150000e+04     6.384243e-20
 4.250000e+04     6.270263e-20
 4.350000e+04     6.175339e-20
 4.450000e+04     6.097927e-20
 4.550000e+04     6.027809e-20
 4.650000e+04     5.964266e-20
 4.750000e+04     5.915814e-20
 4.850000e+04     5.893154e-20
 4.950000e+04     5.904035e-20
 5.050000e+04     5.950856e-20
 5.150000e+04     6.034317e-20
 5.250000e+04     6.155008e-20
 5.350000e+04     6.313836e-20
 5.450000e+04     6.531714e-20
 5.550000e+04     6.822589e-20
 5.650000e+04     7.104396e-20
 5.750000e+04     7.387826e-20
 5.850000e+04     7.603974e-20
 5.950000e+04     7.780875e-20
 6.050000e+04     8.064931e-20
 6.150000e+04     8.618808e-20
 6.250000e+04     9.962143e-20
 6.350000e+04     1.088844e-19
 6.450000e+04     1.131846e-19
 6.550000e+04     1.171221e-19
 6.650010e+04     1.212164e-19
 6.750010e+04     1.256491e-19
 6.850010e+04     1.297082e-19
 6.950010e+04     1.349389e-19
 7.020000e+04     1.397364e-19
 7.100000e+04     1.442848e-19
 7.180000e+04     1.485231e-19
 7.260000e+04     1.527930e-19
 7.340000e+04     1.580461e-19
 7.420000e+04     1.656601e-19
 7.500000e+04     1.762183e-19
 7.580000e+04     1.895275e-19
 7.660000e+04     2.044028e-19
 7.740000e+04     2.186823e-19
 7.820000e+04     2.323021e-19
 7.900000e+04     2.446193e-19
 7.980000e+04     2.545749e-19
 8.060000e+04     2.621325e-19
 8.140000e+04     2.676864e-19
 8.220000e+04     2.721950e-19
 8.300000e+04     2.759700e-19
 8.380000e+04     2.792314e-19
 8.460000e+04     2.823190e-19
 8.540000e+04     2.856581e-19
 8.620000e+04     2.893080e-19
 8.700000e+04     2.922024e-19
 8.780000e+04     2.934726e-19
 8.860000e+04     2.934928e-19
 8.940000e+04     2.930900e-19
 9.020000e+04     2.923565e-19
 9.100000e+04     2.912834e-19
 9.180000e+04     2.901421e-19
 9.260000e+04     2.888931e-19
 9.340000e+04     2.874591e-19
 9.420000e+04     2.860958e-19
 9.500000e+04     2.848495e-19
 9.580000e+04     2.836398e-19
 9.660000e+04     2.829060e-19
 9.740000e+04     2.822924e-19
 9.820000e+04     2.811501e-19
 9.900000e+04     2.796373e-19
 9.980000e+04     2.780642e-19
 1.006000e+05     2.764190e-19
 1.020000e+05     2.733229e-19
 1.040000e+05     2.679930e-19
 1.060000e+05     2.632430e-19
 1.080000e+05     2.591029e-19
 1.100000e+05     2.566040e-19
 1.120000e+05     2.626890e-19
 1.140000e+05     2.795902e-19
 1.160000e+05     2.831833e-19
 1.180000e+05     2.840250e-19
 1.200000e+05     2.862755e-19
 1.220000e+05     2.908113e-19
 1.240000e+05     2.983128e-19
 1.260000e+05     3.093265e-19
 1.280000e+05     3.297874e-19
 1.300000e+05     3.491697e-19
 1.320000e+05     3.508374e-19
 1.340000e+05     3.586635e-19
 1.360000e+05     3.652589e-19
 1.380000e+05     3.724982e-19
 1.400000e+05     3.793870e-19
 1.420000e+05     3.874154e-19
 1.440000e+05     3.954069e-19
 1.460000e+05     4.027522e-19
 1.480000e+05     4.097971e-19
 1.500000e+05     4.162285e-19
 1.520000e+05     4.218032e-19
 1.540000e+05     4.269754e-19
 1.560000e+05     4.346079e-19
 1.580000e+05     4.412266e-19
 1.600000e+05     4.456880e-19
 1.620000e+05     4.512013e-19
 1.640000e+05     4.577736e-19
 1.660000e+05     4.666383e-19
 1.680000e+05     4.730558e-19
 1.700000e+05     4.808348e-19
 1.720000e+05     4.899044e-19
 1.740000e+05     4.953310e-19
 1.760000e+05     5.003969e-19
 1.780000e+05     5.040407e-19
 1.800000e+05     5.087240e-19
 1.820000e+05     5.126109e-19
 1.840000e+05     5.172558e-19
 1.860000e+05     5.224083e-19
 1.880000e+05     5.326580e-19
 1.900000e+05     5.396112e-19
 1.920000e+05     5.471511e-19
 1.940000e+05     5.557570e-19
 1.960000e+05     5.661001e-19
 1.980000e+05     5.780244e-19
 2.000000e+05     5.907919e-19
 2.020000e+05     6.049590e-19
 2.040000e+05     6.205570e-19
 2.060000e+05     6.360044e-19
 2.080000e+05     6.516552e-19
 2.100000e+05     6.695064e-19
 2.120000e+05     6.871504e-19
 2.140000e+05     7.046223e-19
 2.160000e+05     7.243203e-19
 2.180000e+05     7.449947e-19
 2.200000e+05     7.643959e-19
 2.220000e+05     7.847442e-19
 2.240000e+05     8.071767e-19
 2.260000e+05     8.290785e-19
 2.280000e+05     8.503808e-19
 2.300000e+05     8.734788e-19
 2.320000e+05     8.984220e-19
 2.340000e+05     9.237701e-19
 2.360000e+05     9.491321e-19
 2.380000e+05     9.762012e-19
 2.400000e+05     1.005424e-18
 2.420000e+05     1.035540e-18
 2.440000e+05     1.065773e-18
 2.460000e+05     1.097495e-18
 2.480000e+05     1.131211e-18
 2.500000e+05     1.165557e-18
 2.520000e+05     1.199587e-18
 2.540000e+05     1.234333e-18
 2.560000e+05     1.270739e-18
 2.580000e+05     1.308766e-18
 2.600000e+05     1.347513e-18
 2.620000e+05     1.386091e-18
 2.640000e+05     1.424879e-18
 2.660000e+05     1.464868e-18
 2.680000e+05     1.506826e-18
 2.700000e+05     1.548722e-18
 2.720000e+05     1.590168e-18
 2.740000e+05     1.631722e-18
 2.760000e+05     1.674710e-18
 2.780000e+05     1.719613e-18
 2.800000e+05     1.766584e-18
 2.820000e+05     1.815395e-18
 2.840000e+05     1.863984e-18
 2.860000e+05     1.912029e-18
 2.880000e+05     1.960847e-18
 2.900000e+05     2.012023e-18
 2.920000e+05     2.064536e-18
 2.940000e+05     2.117768e-18
 2.960000e+05     2.172742e-18
 2.980000e+05     2.228209e-18
 3.000000e+05     2.282966e-18
 3.020000e+05     2.339638e-18
 3.040000e+05     2.398148e-18
 3.060000e+05     2.457032e-18
 3.080000e+05     2.516515e-18
 3.100000e+05     2.576191e-18
 3.120000e+05     2.635470e-18
 3.140000e+05     2.696780e-18
 3.160000e+05     2.759214e-18
 3.180000e+05     2.822787e-18
 3.200000e+05     2.888736e-18
 3.220000e+05     2.954271e-18
 3.240000e+05     3.020645e-18
 3.260000e+05     3.089470e-18
 3.280000e+05     3.156727e-18
 3.300000e+05     3.224821e-18
 3.320000e+05     3.292077e-18
 3.340000e+05     3.368310e-18
 3.360000e+05     3.451818e-18
 3.380000e+05     3.528384e-18
 3.400000e+05     3.592426e-18
 3.420000e+05     3.660012e-18
 3.440000e+05     3.728254e-18
 3.460000e+05     3.794276e-18
 3.480000e+05     3.876564e-18
 3.500000e+05     3.966999e-18
 3.520000e+05     4.050127e-18
 3.540000e+05     4.125037e-18
 3.560000e+05     4.191316e-18
 3.580000e+05     4.255754e-18
 3.600000e+05     4.327886e-18
 3.620000e+05     4.400423e-18
 3.640000e+05     4.467825e-18
 3.660000e+05     4.536188e-18
 3.680000e+05     4.609173e-18
 3.700000e+05     4.681871e-18
 3.720000e+05     4.753597e-18
 3.740000e+05     4.827647e-18
 3.760000e+05     4.903947e-18
 3.780000e+05     4.979606e-18
 3.800000e+05     5.055687e-18
 3.820000e+05     5.134070e-18
 3.840000e+05     5.213506e-18
 3.860000e+05     5.292759e-18
 3.880000e+05     5.373147e-18
 3.900000e+05     5.455109e-18
 3.920000e+05     5.537483e-18
 4.320000e+05     7.257516e-18
 4.760000e+05     9.219962e-18
 5.250000e+05     1.135864e-17
 5.790000e+05     1.354258e-17
 6.390000e+05     1.567163e-17
 7.040000e+05     1.748159e-17
 7.760000e+05     1.882428e-17
 8.560000e+05     1.960019e-17
 9.430000e+05     1.979578e-17
 1.040000e+06     1.949370e-17
 1.147000e+06     1.880882e-17
 1.264000e+06     1.787727e-17
 1.394000e+06     1.680538e-17
 1.537000e+06     1.569083e-17
 1.694000e+06     1.458356e-17
 1.868000e+06     1.349566e-17
 2.059000e+06     1.243215e-17
 2.270000e+06     1.137276e-17
 2.503000e+06     1.030458e-17
 2.760000e+06     9.223546e-18
 3.043000e+06     8.138617e-18
 3.354000e+06     7.069140e-18
 3.698000e+06     6.032525e-18
