## EBL from Khaire & Srianand 2018; Q14 Model with alpha=-1.4 
## Column1:wavelength (Angstrom);  Column2:EBL specific intensity J_nu (erg/s/cm^2/Hz/Sr)
## ===========================================================================================
 1.000000e-08     1.220417e-38
 1.122019e-08     1.774706e-38
 1.258925e-08     2.535734e-38
 1.412538e-08     3.548451e-38
 1.584893e-08     4.867525e-38
 1.778279e-08     6.556854e-38
 1.995263e-08     8.689874e-38
 2.238721e-08     1.135049e-37
 2.511887e-08     1.463458e-37
 2.818382e-08     1.865170e-37
 3.162278e-08     2.352741e-37
 3.548135e-08     2.940568e-37
 3.981071e-08     3.645210e-37
 4.466837e-08     4.485752e-37
 5.011870e-08     5.484188e-37
 5.623413e-08     6.665962e-37
 6.309576e-08     8.060463e-37
 7.079456e-08     9.701690e-37
 7.943284e-08     1.162906e-36
 8.912505e-08     1.388815e-36
 1.000000e-07     1.653184e-36
 1.122019e-07     1.962139e-36
 1.258925e-07     2.322770e-36
 1.412538e-07     2.743314e-36
 1.584892e-07     3.233291e-36
 1.778279e-07     3.803770e-36
 1.995263e-07     4.467551e-36
 2.238721e-07     5.239475e-36
 2.511887e-07     6.136760e-36
 2.818382e-07     7.179338e-36
 3.162278e-07     8.390339e-36
 3.548136e-07     9.796546e-36
 3.981071e-07     1.142898e-35
 4.466837e-07     1.332367e-35
 5.011870e-07     1.552226e-35
 5.623413e-07     1.807313e-35
 6.309576e-07     2.103224e-35
 7.079456e-07     2.446447e-35
 7.943284e-07     2.844510e-35
 8.912505e-07     3.306118e-35
 1.000000e-06     3.841379e-35
 1.122019e-06     4.461995e-35
 1.258925e-06     5.181517e-35
 1.412538e-06     6.015678e-35
 1.584893e-06     6.982673e-35
 1.778279e-06     8.103616e-35
 1.995263e-06     9.402968e-35
 2.238721e-06     1.090905e-34
 2.511887e-06     1.265471e-34
 2.818382e-06     1.467799e-34
 3.162278e-06     1.702301e-34
 3.548136e-06     1.974085e-34
 3.981071e-06     2.289070e-34
 4.466837e-06     2.654122e-34
 5.011870e-06     3.077185e-34
 5.623413e-06     3.567482e-34
 6.309576e-06     4.135683e-34
 7.079456e-06     4.794153e-34
 7.943284e-06     5.557242e-34
 8.912505e-06     6.441545e-34
 1.000000e-05     7.466330e-34
 1.122019e-05     8.653893e-34
 1.258925e-05     1.003007e-33
 1.412538e-05     1.162484e-33
 1.584893e-05     1.347288e-33
 1.778279e-05     1.561442e-33
 1.995263e-05     1.809609e-33
 2.238721e-05     2.097185e-33
 2.511887e-05     2.430431e-33
 2.818382e-05     2.816595e-33
 3.162278e-05     3.264085e-33
 3.548135e-05     3.782634e-33
 3.981071e-05     4.383523e-33
 4.466837e-05     5.079834e-33
 5.011870e-05     5.886705e-33
 5.623413e-05     6.821708e-33
 6.309577e-05     7.905179e-33
 7.079457e-05     9.160677e-33
 7.943284e-05     1.061554e-32
 8.912505e-05     1.230140e-32
 1.000000e-04     1.425497e-32
 1.122018e-04     1.651871e-32
 1.258926e-04     1.913826e-32
 1.412538e-04     2.210812e-32
 1.584893e-04     2.552886e-32
 1.778279e-04     2.949363e-32
 1.995262e-04     3.410100e-32
 2.238722e-04     3.946287e-32
 2.511887e-04     4.570954e-32
 2.818383e-04     5.299434e-32
 3.162278e-04     6.149807e-32
 3.548134e-04     7.143422e-32
 3.981073e-04     8.305524e-32
 4.466837e-04     9.665966e-32
 5.011873e-04     1.126010e-31
 5.623413e-04     1.312981e-31
 6.309572e-04     1.532475e-31
 7.079460e-04     1.790385e-31
 7.943284e-04     2.093699e-31
 8.912510e-04     2.450726e-31
 1.000000e-03     2.871339e-31
 1.122018e-03     3.367275e-31
 1.258926e-03     3.952510e-31
 1.412538e-03     4.643662e-31
 1.584893e-03     5.460542e-31
 1.778279e-03     6.426753e-31
 1.995262e-03     7.570433e-31
 2.238722e-03     8.925143e-31
 2.511887e-03     1.053091e-30
 2.818383e-03     1.243553e-30
 3.162278e-03     1.469609e-30
 3.548133e-03     1.738074e-30
 3.981073e-03     2.057097e-30
 4.466837e-03     2.436416e-30
 5.011873e-03     2.887694e-30
 5.623413e-03     3.424928e-30
 6.309573e-03     4.065024e-30
 7.079460e-03     4.828585e-30
 7.943284e-03     5.741089e-30
 8.912510e-03     6.834581e-30
 1.000000e-02     8.149977e-30
 1.122019e-02     9.740013e-30
 1.258925e-02     1.167266e-29
 1.412538e-02     1.403498e-29
 1.584894e-02     1.693663e-29
 1.778279e-02     2.051342e-29
 1.995263e-02     2.493027e-29
 2.238721e-02     3.038355e-29
 2.511887e-02     3.710375e-29
 2.818385e-02     4.535774e-29
 3.162277e-02     5.545201e-29
 3.548136e-02     6.773762e-29
 3.981071e-02     8.261535e-29
 4.466837e-02     1.005454e-28
 5.011876e-02     1.220571e-28
 5.623413e-02     1.477634e-28
 6.309576e-02     1.783790e-28
 7.079456e-02     2.147397e-28
 7.943284e-02     2.578304e-28
 8.912515e-02     3.088128e-28
 1.000000e-01     3.690632e-28
 1.122019e-01     4.402681e-28
 1.258925e-01     5.222342e-28
 1.412538e-01     6.125053e-28
 1.584894e-01     7.097302e-28
 1.778279e-01     8.130475e-28
 1.995263e-01     9.218023e-28
 2.238721e-01     1.035443e-27
 2.511887e-01     1.153506e-27
 2.818385e-01     1.275611e-27
 3.162278e-01     1.400028e-27
 3.548135e-01     1.513622e-27
 3.981071e-01     1.626382e-27
 4.466837e-01     1.742279e-27
 5.011876e-01     1.862882e-27
 5.623413e-01     1.989048e-27
 6.309576e-01     2.121471e-27
 7.079456e-01     2.261167e-27
 7.943284e-01     2.409261e-27
 8.912515e-01     2.567137e-27
 1.000000e+00     2.736466e-27
 1.122019e+00     2.919251e-27
 1.258925e+00     3.117844e-27
 1.412538e+00     3.335012e-27
 1.584894e+00     3.573952e-27
 1.778279e+00     3.838348e-27
 1.995263e+00     4.132388e-27
 2.238721e+00     4.460745e-27
 2.511887e+00     4.828510e-27
 2.818385e+00     5.241008e-27
 3.162278e+00     5.703420e-27
 3.548136e+00     6.220153e-27
 3.981071e+00     6.793722e-27
 4.466837e+00     7.423110e-27
 5.011876e+00     8.101341e-27
 5.623413e+00     8.812433e-27
 6.309576e+00     9.524481e-27
 7.079456e+00     1.007215e-26
 7.943284e+00     1.062195e-26
 8.912516e+00     1.106308e-26
 1.000000e+01     1.128075e-26
 1.122019e+01     1.122636e-26
 1.258925e+01     1.087898e-26
 1.412538e+01     1.028707e-26
 1.584894e+01     9.488003e-27
 1.778279e+01     8.547151e-27
 1.995263e+01     7.550836e-27
 2.238721e+01     6.557803e-27
 2.511887e+01     5.617370e-27
 2.818385e+01     4.760742e-27
 3.162278e+01     4.003937e-27
 3.548135e+01     3.352364e-27
 3.981071e+01     2.801305e-27
 4.466837e+01     2.339331e-27
 5.011876e+01     1.955505e-27
 5.623413e+01     1.637845e-27
 6.309576e+01     1.374823e-27
 7.079456e+01     1.158289e-27
 7.943284e+01     9.791509e-28
 8.912515e+01     8.318283e-28
 1.000000e+02     7.103326e-28
 1.120000e+02     6.115656e-28
 1.250000e+02     5.324242e-28
 1.400000e+02     4.649712e-28
 1.550000e+02     4.146138e-28
 1.650000e+02     3.880544e-28
 1.750000e+02     3.657765e-28
 1.850000e+02     3.478001e-28
 1.900000e+02     3.418432e-28
 1.950000e+02     3.402972e-28
 2.000000e+02     3.479597e-28
 2.050000e+02     3.750182e-28
 2.100000e+02     4.421398e-28
 2.150000e+02     5.896849e-28
 2.180000e+02     7.462549e-28
 2.210000e+02     9.839440e-28
 2.240000e+02     1.339605e-27
 2.260000e+02     1.667091e-27
 2.270000e+02     1.865085e-27
 2.275000e+02     1.973873e-27
 2.278400e+02     2.051852e-27
 2.380000e+02     1.017376e-23
 2.500000e+02     2.100808e-23
 2.700000e+02     2.636653e-23
 2.900000e+02     2.880744e-23
 3.035000e+02     3.028273e-23
 3.037800e+02     3.392398e-23
 3.045000e+02     3.355755e-23
 3.060000e+02     3.300177e-23
 3.080000e+02     3.249694e-23
 3.100000e+02     3.219064e-23
 3.120000e+02     3.204410e-23
 3.150000e+02     3.200648e-23
 3.200000e+02     3.224457e-23
 3.250000e+02     3.265426e-23
 3.300000e+02     3.314216e-23
 3.400000e+02     3.417615e-23
 3.600000e+02     3.625382e-23
 3.800000e+02     3.830385e-23
 4.050000e+02     4.082626e-23
 4.250000e+02     4.281658e-23
 4.500000e+02     4.524588e-23
 4.650000e+02     4.669582e-23
 4.750000e+02     4.765184e-23
 4.820000e+02     4.832304e-23
 4.870000e+02     4.879751e-23
 4.910000e+02     4.917544e-23
 4.950000e+02     4.955859e-23
 4.980000e+02     4.983297e-23
 5.000000e+02     5.001871e-23
 5.020000e+02     5.020528e-23
 5.039800e+02     5.039234e-23
 5.100000e+02     5.719188e-23
 5.250000e+02     6.410128e-23
 5.600000e+02     6.980189e-23
 6.000000e+02     7.443754e-23
 6.500000e+02     8.056948e-23
 7.000000e+02     8.808028e-23
 7.500000e+02     9.806539e-23
 8.000000e+02     1.117424e-22
 8.300000e+02     1.223249e-22
 8.600000e+02     1.351918e-22
 8.800000e+02     1.451160e-22
 8.900000e+02     1.505778e-22
 8.960000e+02     1.539780e-22
 9.000000e+02     1.563335e-22
 9.030000e+02     1.581240e-22
 9.060000e+02     1.599776e-22
 9.090000e+02     1.618308e-22
 9.117800e+02     1.635843e-22
 9.300000e+02     7.304539e-22
 9.500000e+02     1.870257e-21
 9.750000e+02     3.690638e-21
 9.900000e+02     4.479654e-21
 1.005000e+03     5.597325e-21
 1.025000e+03     7.107673e-21
 1.045000e+03     8.418082e-21
 1.065000e+03     1.031074e-20
 1.085000e+03     1.206008e-20
 1.105000e+03     1.369962e-20
 1.125000e+03     1.545729e-20
 1.145000e+03     1.694325e-20
 1.165000e+03     1.859269e-20
 1.185000e+03     1.996354e-20
 1.205000e+03     2.139759e-20
 1.215600e+03     2.193075e-20
 1.215670e+03     2.455633e-20
 1.216000e+03     2.456641e-20
 1.218000e+03     2.462736e-20
 1.221000e+03     2.471798e-20
 1.225000e+03     2.479349e-20
 1.230000e+03     2.488723e-20
 1.240000e+03     2.534588e-20
 1.250000e+03     2.595195e-20
 1.265000e+03     2.715473e-20
 1.285000e+03     2.836636e-20
 1.305000e+03     2.974092e-20
 1.325000e+03     3.115193e-20
 1.345000e+03     3.239156e-20
 1.365000e+03     3.367613e-20
 1.385000e+03     3.483446e-20
 1.405000e+03     3.584806e-20
 1.425000e+03     3.684772e-20
 1.442000e+03     3.764136e-20
 1.455000e+03     3.820572e-20
 1.475000e+03     3.907163e-20
 1.517000e+03     4.091886e-20
 1.595000e+03     4.306355e-20
 1.672000e+03     4.496033e-20
 1.745000e+03     4.641396e-20
 1.825000e+03     4.789926e-20
 1.905000e+03     4.858383e-20
 1.984000e+03     4.925860e-20
 2.065000e+03     4.966836e-20
 2.135000e+03     4.971199e-20
 2.215000e+03     4.978209e-20
 2.295000e+03     4.956771e-20
 2.375000e+03     4.939744e-20
 2.455000e+03     4.916282e-20
 2.525000e+03     4.889125e-20
 2.605000e+03     4.875729e-20
 2.685000e+03     4.879596e-20
 2.765000e+03     4.864296e-20
 2.845000e+03     4.840197e-20
 2.950000e+03     4.799108e-20
 3.110000e+03     4.785115e-20
 3.270000e+03     4.759696e-20
 3.430000e+03     4.729024e-20
 3.590000e+03     4.698875e-20
 3.730000e+03     4.716579e-20
 3.890000e+03     4.940572e-20
 4.050000e+03     5.229128e-20
 4.210000e+03     5.561479e-20
 4.370000e+03     5.847641e-20
 4.530000e+03     6.116649e-20
 4.690000e+03     6.352849e-20
 4.850000e+03     6.498295e-20
 5.010000e+03     6.646342e-20
 5.170000e+03     6.756907e-20
 5.330000e+03     6.858447e-20
 5.490000e+03     6.948443e-20
 5.650000e+03     7.031870e-20
 5.810000e+03     7.115246e-20
 5.970000e+03     7.171769e-20
 6.130000e+03     7.227898e-20
 6.290000e+03     7.277506e-20
 6.450000e+03     7.315342e-20
 6.610000e+03     7.348243e-20
 6.770000e+03     7.387184e-20
 6.930000e+03     7.417623e-20
 7.090000e+03     7.441185e-20
 7.250000e+03     7.463287e-20
 7.410000e+03     7.485174e-20
 7.570000e+03     7.512773e-20
 7.730000e+03     7.542943e-20
 7.890000e+03     7.569922e-20
 8.050000e+03     7.593717e-20
 8.210000e+03     7.616281e-20
 8.370000e+03     7.639219e-20
 8.530000e+03     7.661434e-20
 8.690000e+03     7.684518e-20
 8.850000e+03     7.722410e-20
 9.010000e+03     7.756061e-20
 9.170000e+03     7.795485e-20
 9.330000e+03     7.832873e-20
 9.490000e+03     7.871361e-20
 9.650000e+03     7.907858e-20
 9.810000e+03     7.940141e-20
 9.970000e+03     7.976883e-20
 1.050000e+04     8.050216e-20
 1.150000e+04     8.088033e-20
 1.250000e+04     8.084765e-20
 1.350000e+04     8.068922e-20
 1.450000e+04     8.073578e-20
 1.550000e+04     8.143616e-20
 1.650000e+04     8.152937e-20
 1.750000e+04     8.054344e-20
 1.850000e+04     7.879875e-20
 1.950000e+04     7.711920e-20
 2.050000e+04     7.572202e-20
 2.150000e+04     7.459941e-20
 2.250000e+04     7.377550e-20
 2.350000e+04     7.327735e-20
 2.450000e+04     7.312914e-20
 2.550000e+04     7.335230e-20
 2.650000e+04     7.396493e-20
 2.750000e+04     7.498149e-20
 2.850000e+04     7.641382e-20
 2.950000e+04     7.827135e-20
 3.050000e+04     8.055693e-20
 3.150000e+04     8.318875e-20
 3.250000e+04     8.582069e-20
 3.350000e+04     8.798236e-20
 3.450000e+04     8.964046e-20
 3.550000e+04     9.170768e-20
 3.650000e+04     9.390962e-20
 3.750000e+04     9.614445e-20
 3.850000e+04     9.841895e-20
 3.950000e+04     1.007273e-19
 4.050000e+04     1.030569e-19
 4.150000e+04     1.054020e-19
 4.250000e+04     1.077626e-19
 4.350000e+04     1.101411e-19
 4.450000e+04     1.125351e-19
 4.550000e+04     1.149421e-19
 4.650000e+04     1.173626e-19
 4.750000e+04     1.197970e-19
 4.850000e+04     1.222433e-19
 4.950000e+04     1.246989e-19
 5.050000e+04     1.271620e-19
 5.150000e+04     1.296313e-19
 5.250000e+04     1.321065e-19
 5.350000e+04     1.323804e-19
 5.450000e+04     1.324256e-19
 5.550000e+04     1.334263e-19
 5.650000e+04     1.344846e-19
 5.750000e+04     1.366800e-19
 5.850000e+04     1.394561e-19
 5.950000e+04     1.430863e-19
 6.050000e+04     1.481087e-19
 6.150000e+04     1.599858e-19
 6.250000e+04     1.806067e-19
 6.350000e+04     1.938872e-19
 6.450000e+04     1.996741e-19
 6.550000e+04     2.025631e-19
 6.650010e+04     2.046481e-19
 6.750010e+04     2.082442e-19
 6.850010e+04     2.110516e-19
 6.950010e+04     2.156118e-19
 7.020000e+04     2.194119e-19
 7.100000e+04     2.226878e-19
 7.180000e+04     2.264807e-19
 7.260000e+04     2.319426e-19
 7.340000e+04     2.392070e-19
 7.420000e+04     2.487700e-19
 7.500000e+04     2.617922e-19
 7.580000e+04     2.789189e-19
 7.660000e+04     2.976417e-19
 7.740000e+04     3.139865e-19
 7.820000e+04     3.281877e-19
 7.900000e+04     3.403565e-19
 7.980000e+04     3.495714e-19
 8.060000e+04     3.553796e-19
 8.140000e+04     3.588751e-19
 8.220000e+04     3.597229e-19
 8.300000e+04     3.599629e-19
 8.380000e+04     3.604401e-19
 8.460000e+04     3.608217e-19
 8.540000e+04     3.611941e-19
 8.620000e+04     3.625160e-19
 8.700000e+04     3.639919e-19
 8.780000e+04     3.629601e-19
 8.860000e+04     3.588439e-19
 8.940000e+04     3.529189e-19
 9.020000e+04     3.464843e-19
 9.100000e+04     3.400758e-19
 9.180000e+04     3.331625e-19
 9.260000e+04     3.263387e-19
 9.340000e+04     3.197689e-19
 9.420000e+04     3.135353e-19
 9.500000e+04     3.073837e-19
 9.580000e+04     3.013555e-19
 9.660000e+04     2.965466e-19
 9.740000e+04     2.922798e-19
 9.820000e+04     2.869532e-19
 9.900000e+04     2.819346e-19
 9.980000e+04     2.769814e-19
 1.006000e+05     2.726358e-19
 1.020000e+05     2.652428e-19
 1.040000e+05     2.561565e-19
 1.060000e+05     2.524424e-19
 1.080000e+05     2.504231e-19
 1.100000e+05     2.505484e-19
 1.120000e+05     2.701892e-19
 1.140000e+05     3.051788e-19
 1.160000e+05     3.155285e-19
 1.180000e+05     3.192352e-19
 1.200000e+05     3.215576e-19
 1.220000e+05     3.275019e-19
 1.240000e+05     3.326895e-19
 1.260000e+05     3.413074e-19
 1.280000e+05     3.567000e-19
 1.300000e+05     3.654290e-19
 1.320000e+05     3.591572e-19
 1.340000e+05     3.553506e-19
 1.360000e+05     3.494846e-19
 1.380000e+05     3.459994e-19
 1.400000e+05     3.380219e-19
 1.420000e+05     3.346421e-19
 1.440000e+05     3.284287e-19
 1.460000e+05     3.231513e-19
 1.480000e+05     3.161049e-19
 1.500000e+05     3.115528e-19
 1.520000e+05     3.063338e-19
 1.540000e+05     3.027688e-19
 1.560000e+05     3.039236e-19
 1.580000e+05     3.046752e-19
 1.600000e+05     3.032315e-19
 1.620000e+05     3.032691e-19
 1.640000e+05     3.075005e-19
 1.660000e+05     3.152520e-19
 1.680000e+05     3.206840e-19
 1.700000e+05     3.290566e-19
 1.720000e+05     3.405684e-19
 1.740000e+05     3.470178e-19
 1.760000e+05     3.516295e-19
 1.780000e+05     3.539977e-19
 1.800000e+05     3.550385e-19
 1.820000e+05     3.556588e-19
 1.840000e+05     3.549470e-19
 1.860000e+05     3.552990e-19
 1.880000e+05     3.639592e-19
 1.900000e+05     3.669055e-19
 1.920000e+05     3.669507e-19
 1.940000e+05     3.673104e-19
 1.960000e+05     3.679959e-19
 1.980000e+05     3.686169e-19
 2.000000e+05     3.694009e-19
 2.020000e+05     3.708049e-19
 2.040000e+05     3.724919e-19
 2.060000e+05     3.744855e-19
 2.080000e+05     3.768702e-19
 2.100000e+05     3.796001e-19
 2.120000e+05     3.826067e-19
 2.140000e+05     3.856980e-19
 2.160000e+05     3.890953e-19
 2.180000e+05     3.929003e-19
 2.200000e+05     3.967701e-19
 2.220000e+05     4.007158e-19
 2.240000e+05     4.051503e-19
 2.260000e+05     4.096994e-19
 2.280000e+05     4.143850e-19
 2.300000e+05     4.193488e-19
 2.320000e+05     4.246077e-19
 2.340000e+05     4.299734e-19
 2.360000e+05     4.353770e-19
 2.380000e+05     4.409767e-19
 2.400000e+05     4.468046e-19
 2.420000e+05     4.527487e-19
 2.440000e+05     4.587516e-19
 2.460000e+05     4.650058e-19
 2.480000e+05     4.714481e-19
 2.500000e+05     4.780455e-19
 2.520000e+05     4.847658e-19
 2.540000e+05     4.916308e-19
 2.560000e+05     4.986419e-19
 2.580000e+05     5.065724e-19
 2.600000e+05     5.157125e-19
 2.620000e+05     5.241758e-19
 2.640000e+05     5.318003e-19
 2.660000e+05     5.393976e-19
 2.680000e+05     5.470582e-19
 2.700000e+05     5.550301e-19
 2.720000e+05     5.630575e-19
 2.740000e+05     5.709701e-19
 2.760000e+05     5.790282e-19
 2.780000e+05     5.875176e-19
 2.800000e+05     5.961871e-19
 2.820000e+05     6.056505e-19
 2.840000e+05     6.154479e-19
 2.860000e+05     6.246876e-19
 2.880000e+05     6.337241e-19
 2.900000e+05     6.429299e-19
 2.920000e+05     6.521572e-19
 2.940000e+05     6.617269e-19
 2.960000e+05     6.715007e-19
 2.980000e+05     6.811808e-19
 3.000000e+05     6.909722e-19
 3.020000e+05     7.011167e-19
 3.040000e+05     7.114114e-19
 3.060000e+05     7.217372e-19
 3.080000e+05     7.324010e-19
 3.100000e+05     7.433671e-19
 3.120000e+05     7.543849e-19
 3.140000e+05     7.657527e-19
 3.160000e+05     7.775770e-19
 3.180000e+05     7.894762e-19
 3.200000e+05     8.017800e-19
 3.220000e+05     8.144657e-19
 3.240000e+05     8.274930e-19
 3.260000e+05     8.411410e-19
 3.280000e+05     8.559233e-19
 3.300000e+05     8.714457e-19
 3.320000e+05     8.863861e-19
 3.340000e+05     9.057921e-19
 3.360000e+05     9.328900e-19
 3.380000e+05     9.549001e-19
 3.400000e+05     9.682444e-19
 3.420000e+05     9.818374e-19
 3.440000e+05     9.968019e-19
 3.460000e+05     1.010093e-18
 3.480000e+05     1.035097e-18
 3.500000e+05     1.067712e-18
 3.520000e+05     1.088936e-18
 3.540000e+05     1.099880e-18
 3.560000e+05     1.113291e-18
 3.580000e+05     1.127266e-18
 3.600000e+05     1.139618e-18
 3.620000e+05     1.154357e-18
 3.640000e+05     1.168757e-18
 3.660000e+05     1.181865e-18
 3.680000e+05     1.195199e-18
 3.700000e+05     1.209023e-18
 3.720000e+05     1.223056e-18
 3.740000e+05     1.236930e-18
 3.760000e+05     1.251020e-18
 3.780000e+05     1.265339e-18
 3.800000e+05     1.279712e-18
 3.820000e+05     1.294713e-18
 3.840000e+05     1.309979e-18
 3.860000e+05     1.325334e-18
 3.880000e+05     1.340848e-18
 3.900000e+05     1.356009e-18
 3.920000e+05     1.371620e-18
 4.320000e+05     1.706089e-18
 4.760000e+05     2.101408e-18
 5.250000e+05     2.559978e-18
 5.790000e+05     3.076753e-18
 6.390000e+05     3.658065e-18
 7.040000e+05     4.295113e-18
 7.760000e+05     5.179504e-18
 8.560000e+05     6.351281e-18
 9.430000e+05     7.787851e-18
 1.040000e+06     9.465661e-18
 1.147000e+06     1.125889e-17
 1.264000e+06     1.298801e-17
 1.394000e+06     1.448477e-17
 1.537000e+06     1.555830e-17
 1.694000e+06     1.608915e-17
 1.868000e+06     1.603398e-17
 2.059000e+06     1.542301e-17
 2.270000e+06     1.434597e-17
 2.503000e+06     1.293194e-17
 2.760000e+06     1.132334e-17
 3.043000e+06     9.654755e-18
 3.354000e+06     8.035752e-18
 3.698000e+06     6.534465e-18
