## EBL from Khaire & Srianand 2018; Q14 Model with alpha=-1.4 
## Column1:wavelength (Angstrom);  Column2:EBL specific intensity J_nu (erg/s/cm^2/Hz/Sr)
## ===========================================================================================
 1.000000e-08     3.977662e-46
 1.122019e-08     5.787359e-46
 1.258925e-08     8.219317e-46
 1.412538e-08     1.141791e-45
 1.584893e-08     1.555158e-45
 1.778279e-08     2.081283e-45
 1.995263e-08     2.742123e-45
 2.238721e-08     3.562701e-45
 2.511887e-08     4.571610e-45
 2.818382e-08     5.801528e-45
 3.162278e-08     7.289945e-45
 3.548135e-08     9.079885e-45
 3.981071e-08     1.122086e-44
 4.466837e-08     1.377000e-44
 5.011870e-08     1.679316e-44
 5.623413e-08     2.036657e-44
 6.309576e-08     2.457830e-44
 7.079456e-08     2.953026e-44
 7.943284e-08     3.534066e-44
 8.912505e-08     4.214616e-44
 1.000000e-07     5.010541e-44
 1.122019e-07     5.940202e-44
 1.258925e-07     7.024876e-44
 1.412538e-07     8.289264e-44
 1.584892e-07     9.761928e-44
 1.778279e-07     1.147606e-43
 1.995263e-07     1.347006e-43
 2.238721e-07     1.578844e-43
 2.511887e-07     1.848285e-43
 2.818382e-07     2.161308e-43
 3.162278e-07     2.524849e-43
 3.548136e-07     2.946941e-43
 3.981071e-07     3.436892e-43
 4.466837e-07     4.005503e-43
 5.011870e-07     4.665270e-43
 5.623413e-07     5.430697e-43
 6.309576e-07     6.318577e-43
 7.079456e-07     7.348363e-43
 7.943284e-07     8.542630e-43
 8.912505e-07     9.927494e-43
 1.000000e-06     1.153327e-42
 1.122019e-06     1.339506e-42
 1.258925e-06     1.555349e-42
 1.412538e-06     1.805577e-42
 1.584893e-06     2.095645e-42
 1.778279e-06     2.431887e-42
 1.995263e-06     2.821638e-42
 2.238721e-06     3.273393e-42
 2.511887e-06     3.797005e-42
 2.818382e-06     4.403882e-42
 3.162278e-06     5.107258e-42
 3.548136e-06     5.922453e-42
 3.981071e-06     6.867215e-42
 4.466837e-06     7.962143e-42
 5.011870e-06     9.231059e-42
 5.623413e-06     1.070162e-41
 6.309576e-06     1.240584e-41
 7.079456e-06     1.438080e-41
 7.943284e-06     1.666953e-41
 8.912505e-06     1.932181e-41
 1.000000e-05     2.239542e-41
 1.122019e-05     2.595724e-41
 1.258925e-05     3.008475e-41
 1.412538e-05     3.486788e-41
 1.584893e-05     4.041061e-41
 1.778279e-05     4.683364e-41
 1.995263e-05     5.427676e-41
 2.238721e-05     6.290183e-41
 2.511887e-05     7.289666e-41
 2.818382e-05     8.447860e-41
 3.162278e-05     9.789985e-41
 3.548135e-05     1.134523e-40
 3.981071e-05     1.314743e-40
 4.466837e-05     1.523582e-40
 5.011870e-05     1.765580e-40
 5.623413e-05     2.046008e-40
 6.309577e-05     2.370964e-40
 7.079457e-05     2.747515e-40
 7.943284e-05     3.183860e-40
 8.912505e-05     3.689485e-40
 1.000000e-04     4.275400e-40
 1.122018e-04     4.954343e-40
 1.258926e-04     5.739855e-40
 1.412538e-04     6.622638e-40
 1.584893e-04     7.645952e-40
 1.778279e-04     8.835180e-40
 1.995262e-04     1.021857e-39
 2.238722e-04     1.182939e-39
 2.511887e-04     1.370682e-39
 2.818383e-04     1.589709e-39
 3.162278e-04     1.845483e-39
 3.548134e-04     2.144453e-39
 3.981073e-04     2.494250e-39
 4.466837e-04     2.903899e-39
 5.011873e-04     3.384093e-39
 5.623413e-04     3.947501e-39
 6.309572e-04     4.609149e-39
 7.079460e-04     5.386871e-39
 7.943284e-04     6.301829e-39
 8.912510e-04     7.379180e-39
 1.000000e-03     8.648825e-39
 1.122018e-03     1.014633e-38
 1.258926e-03     1.191403e-38
 1.412538e-03     1.400231e-38
 1.584893e-03     1.647122e-38
 1.778279e-03     1.939231e-38
 1.995262e-03     2.285091e-38
 2.238722e-03     2.694882e-38
 2.511887e-03     3.180746e-38
 2.818383e-03     3.757185e-38
 3.162278e-03     4.441517e-38
 3.548133e-03     5.254427e-38
 3.981073e-03     6.220651e-38
 4.466837e-03     7.369750e-38
 5.011873e-03     8.737147e-38
 5.623413e-03     1.036541e-37
 6.309573e-03     1.230602e-37
 7.079460e-03     1.462200e-37
 7.943284e-03     1.739165e-37
 8.912510e-03     2.071407e-37
 1.000000e-02     2.471649e-37
 1.122019e-02     2.956346e-37
 1.258925e-02     3.546721e-37
 1.412538e-02     4.269882e-37
 1.584894e-02     5.159815e-37
 1.778279e-02     6.258313e-37
 1.995263e-02     7.615769e-37
 2.238721e-02     9.291733e-37
 2.511887e-02     1.135565e-36
 2.818385e-02     1.388750e-36
 3.162277e-02     1.697884e-36
 3.548136e-02     2.073434e-36
 3.981071e-02     2.527351e-36
 4.466837e-02     3.073370e-36
 5.011876e-02     3.727325e-36
 5.623413e-02     4.507591e-36
 6.309576e-02     5.435648e-36
 7.079456e-02     6.536667e-36
 7.943284e-02     7.840367e-36
 8.912515e-02     9.381856e-36
 1.000000e-01     1.120276e-35
 1.122019e-01     1.335440e-35
 1.258925e-01     1.580931e-35
 1.412538e-01     1.846073e-35
 1.584894e-01     2.128923e-35
 1.778279e-01     2.427835e-35
 1.995263e-01     2.741259e-35
 2.238721e-01     3.067788e-35
 2.511887e-01     3.406230e-35
 2.818385e-01     3.755625e-35
 3.162278e-01     4.110385e-35
 3.548135e-01     4.415499e-35
 3.981071e-01     4.732178e-35
 4.466837e-01     5.063225e-35
 5.011876e-01     5.409527e-35
 5.623413e-01     5.772581e-35
 6.309576e-01     6.151830e-35
 7.079456e-01     6.553875e-35
 7.943284e-01     6.980282e-35
 8.912515e-01     7.434826e-35
 1.000000e+00     7.921905e-35
 1.122019e+00     8.446475e-35
 1.258925e+00     9.013888e-35
 1.412538e+00     9.629688e-35
 1.584894e+00     1.029908e-34
 1.778279e+00     1.102614e-34
 1.995263e+00     1.181239e-34
 2.238721e+00     1.265454e-34
 2.511887e+00     1.354107e-34
 2.818385e+00     1.444723e-34
 3.162278e+00     1.532859e-34
 3.548136e+00     1.611419e-34
 3.981071e+00     1.670223e-34
 4.466837e+00     1.696505e-34
 5.011876e+00     1.674222e-34
 5.623413e+00     1.604346e-34
 6.309576e+00     1.476794e-34
 7.079456e+00     1.305002e-34
 7.943284e+00     1.119804e-34
 8.912516e+00     9.409151e-35
 1.000000e+01     7.797469e-35
 1.122019e+01     6.406349e-35
 1.258925e+01     5.235023e-35
 1.412538e+01     4.266233e-35
 1.584894e+01     3.472734e-35
 1.778279e+01     2.827977e-35
 1.995263e+01     2.304987e-35
 2.238721e+01     1.881816e-35
 2.511887e+01     1.539176e-35
 2.818385e+01     1.261776e-35
 3.162278e+01     1.036561e-35
 3.548135e+01     8.536400e-36
 3.981071e+01     7.045699e-36
 4.466837e+01     5.829851e-36
 5.011876e+01     4.836615e-36
 5.623413e+01     4.022166e-36
 6.309576e+01     3.354107e-36
 7.079456e+01     2.805076e-36
 7.943284e+01     2.353051e-36
 8.912515e+01     1.979985e-36
 1.000000e+02     1.671926e-36
 1.120000e+02     1.420836e-36
 1.250000e+02     1.218468e-36
 1.400000e+02     1.044239e-36
 1.550000e+02     9.129638e-37
 1.650000e+02     8.425530e-37
 1.750000e+02     7.833521e-37
 1.850000e+02     7.355004e-37
 1.900000e+02     7.204430e-37
 1.950000e+02     7.187876e-37
 2.000000e+02     7.453534e-37
 2.050000e+02     8.312621e-37
 2.100000e+02     1.039073e-36
 2.150000e+02     1.489759e-36
 2.180000e+02     1.964284e-36
 2.210000e+02     2.680705e-36
 2.240000e+02     3.747151e-36
 2.260000e+02     4.725001e-36
 2.270000e+02     5.314739e-36
 2.275000e+02     5.638393e-36
 2.278400e+02     5.870223e-36
 2.380000e+02     4.607386e-25
 2.500000e+02     4.677838e-25
 2.700000e+02     4.792058e-25
 2.900000e+02     4.902070e-25
 3.035000e+02     4.973563e-25
 3.037800e+02     4.974988e-25
 3.045000e+02     4.978812e-25
 3.060000e+02     4.986591e-25
 3.080000e+02     4.997014e-25
 3.100000e+02     5.007245e-25
 3.120000e+02     5.017602e-25
 3.150000e+02     5.032880e-25
 3.200000e+02     5.058225e-25
 3.250000e+02     5.083150e-25
 3.300000e+02     5.107799e-25
 3.400000e+02     5.156525e-25
 3.600000e+02     5.250571e-25
 3.800000e+02     5.340885e-25
 4.050000e+02     5.449101e-25
 4.250000e+02     5.533300e-25
 4.500000e+02     5.635100e-25
 4.650000e+02     5.697914e-25
 4.750000e+02     5.739100e-25
 4.820000e+02     5.767349e-25
 4.870000e+02     5.787626e-25
 4.910000e+02     5.803613e-25
 4.950000e+02     5.819324e-25
 4.980000e+02     5.831253e-25
 5.000000e+02     5.839248e-25
 5.020000e+02     5.848401e-25
 5.039800e+02     5.857733e-25
 5.100000e+02     8.328091e-25
 5.250000e+02     8.352243e-25
 5.600000e+02     8.422063e-25
 6.000000e+02     8.543157e-25
 6.500000e+02     8.866997e-25
 7.000000e+02     9.444436e-25
 7.500000e+02     1.044766e-24
 8.000000e+02     1.196993e-24
 8.300000e+02     1.322659e-24
 8.600000e+02     1.477383e-24
 8.800000e+02     1.598514e-24
 8.900000e+02     1.664839e-24
 8.960000e+02     1.706464e-24
 9.000000e+02     1.735162e-24
 9.030000e+02     1.757009e-24
 9.060000e+02     1.779232e-24
 9.090000e+02     1.801831e-24
 9.117800e+02     1.823107e-24
 9.300000e+02     8.077659e-22
 9.500000e+02     1.786365e-21
 9.750000e+02     3.122493e-21
 9.900000e+02     3.152588e-21
 1.005000e+03     3.229166e-21
 1.025000e+03     3.643101e-21
 1.045000e+03     3.668476e-21
 1.065000e+03     4.077405e-21
 1.085000e+03     4.507002e-21
 1.105000e+03     4.503445e-21
 1.125000e+03     4.682728e-21
 1.145000e+03     4.571553e-21
 1.165000e+03     4.646752e-21
 1.185000e+03     4.581328e-21
 1.205000e+03     4.519674e-21
 1.215600e+03     4.431800e-21
 1.215670e+03     1.019967e-20
 1.216000e+03     1.017661e-20
 1.218000e+03     1.003633e-20
 1.221000e+03     9.824382e-21
 1.225000e+03     9.556181e-21
 1.230000e+03     9.225219e-21
 1.240000e+03     9.414482e-21
 1.250000e+03     9.220966e-21
 1.265000e+03     4.487749e-21
 1.285000e+03     4.784456e-21
 1.305000e+03     4.981482e-21
 1.325000e+03     5.066581e-21
 1.345000e+03     5.063238e-21
 1.365000e+03     5.104749e-21
 1.385000e+03     5.102820e-21
 1.405000e+03     5.042459e-21
 1.425000e+03     4.925738e-21
 1.442000e+03     4.872212e-21
 1.455000e+03     4.935149e-21
 1.475000e+03     4.945521e-21
 1.517000e+03     4.828089e-21
 1.595000e+03     4.561255e-21
 1.672000e+03     4.614392e-21
 1.745000e+03     4.590080e-21
 1.825000e+03     4.545260e-21
 1.905000e+03     4.372232e-21
 1.984000e+03     4.291668e-21
 2.065000e+03     4.247305e-21
 2.135000e+03     4.136300e-21
 2.215000e+03     4.090836e-21
 2.295000e+03     3.991436e-21
 2.375000e+03     3.877638e-21
 2.455000e+03     3.806223e-21
 2.525000e+03     3.701945e-21
 2.605000e+03     3.674914e-21
 2.685000e+03     3.692125e-21
 2.765000e+03     3.623731e-21
 2.845000e+03     3.521745e-21
 2.950000e+03     3.478268e-21
 3.110000e+03     3.394313e-21
 3.270000e+03     3.268155e-21
 3.430000e+03     3.171117e-21
 3.590000e+03     3.088988e-21
 3.730000e+03     3.163017e-21
 3.890000e+03     3.859880e-21
 4.050000e+03     3.893822e-21
 4.210000e+03     4.371521e-21
 4.370000e+03     4.418732e-21
 4.530000e+03     4.375207e-21
 4.690000e+03     4.363537e-21
 4.850000e+03     4.256650e-21
 5.010000e+03     4.122314e-21
 5.170000e+03     4.077313e-21
 5.330000e+03     4.054899e-21
 5.490000e+03     4.038015e-21
 5.650000e+03     4.043352e-21
 5.810000e+03     4.062142e-21
 5.970000e+03     4.012882e-21
 6.130000e+03     4.016094e-21
 6.290000e+03     3.971000e-21
 6.450000e+03     3.958430e-21
 6.610000e+03     3.947878e-21
 6.770000e+03     3.956058e-21
 6.930000e+03     3.945620e-21
 7.090000e+03     3.923956e-21
 7.250000e+03     3.899090e-21
 7.410000e+03     3.901164e-21
 7.570000e+03     3.919726e-21
 7.730000e+03     3.962948e-21
 7.890000e+03     3.970948e-21
 8.050000e+03     3.962434e-21
 8.210000e+03     3.971651e-21
 8.370000e+03     3.972475e-21
 8.530000e+03     3.987771e-21
 8.690000e+03     4.023209e-21
 8.850000e+03     4.090287e-21
 9.010000e+03     4.131057e-21
 9.170000e+03     4.138553e-21
 9.330000e+03     4.192034e-21
 9.490000e+03     4.211296e-21
 9.650000e+03     4.218095e-21
 9.810000e+03     4.215686e-21
 9.970000e+03     4.229149e-21
 1.050000e+04     4.196892e-21
 1.150000e+04     4.071804e-21
 1.250000e+04     4.003181e-21
 1.350000e+04     3.955367e-21
 1.450000e+04     3.983775e-21
 1.550000e+04     4.124417e-21
 1.650000e+04     4.135659e-21
 1.750000e+04     3.994112e-21
 1.850000e+04     3.684533e-21
 1.950000e+04     3.475444e-21
 2.050000e+04     3.319481e-21
 2.150000e+04     3.193161e-21
 2.250000e+04     3.096335e-21
 2.350000e+04     3.028960e-21
 2.450000e+04     2.991094e-21
 2.550000e+04     2.982708e-21
 2.650000e+04     3.003773e-21
 2.750000e+04     3.054369e-21
 2.850000e+04     3.134426e-21
 2.950000e+04     3.243966e-21
 3.050000e+04     3.383052e-21
 3.150000e+04     3.551609e-21
 3.250000e+04     3.749736e-21
 3.350000e+04     3.871628e-21
 3.450000e+04     3.822082e-21
 3.550000e+04     3.955797e-21
 3.650000e+04     4.058862e-21
 3.750000e+04     4.155802e-21
 3.850000e+04     4.252375e-21
 3.950000e+04     4.348595e-21
 4.050000e+04     4.444518e-21
 4.150000e+04     4.540159e-21
 4.250000e+04     4.635483e-21
 4.350000e+04     4.730531e-21
 4.450000e+04     4.825299e-21
 4.550000e+04     4.919787e-21
 4.650000e+04     5.013976e-21
 4.750000e+04     5.107973e-21
 4.850000e+04     5.201686e-21
 4.950000e+04     5.295145e-21
 5.050000e+04     5.388378e-21
 5.150000e+04     5.481362e-21
 5.250000e+04     5.574133e-21
 5.350000e+04     5.660497e-21
 5.450000e+04     5.637100e-21
 5.550000e+04     5.709755e-21
 5.650000e+04     5.875611e-21
 5.750000e+04     6.119816e-21
 5.850000e+04     6.203568e-21
 5.950000e+04     6.172429e-21
 6.050000e+04     6.511712e-21
 6.150000e+04     8.135508e-21
 6.250000e+04     1.133021e-20
 6.350000e+04     1.227487e-20
 6.450000e+04     1.074233e-20
 6.550000e+04     9.260848e-21
 6.650010e+04     8.202079e-21
 6.750010e+04     7.782530e-21
 6.850010e+04     7.759962e-21
 6.950010e+04     8.093455e-21
 7.020000e+04     8.628816e-21
 7.100000e+04     8.984188e-21
 7.180000e+04     9.249179e-21
 7.260000e+04     9.628149e-21
 7.340000e+04     1.048357e-20
 7.420000e+04     1.163917e-20
 7.500000e+04     1.328097e-20
 7.580000e+04     1.560916e-20
 7.660000e+04     1.798600e-20
 7.740000e+04     1.961722e-20
 7.820000e+04     2.035426e-20
 7.900000e+04     2.039984e-20
 7.980000e+04     1.990427e-20
 8.060000e+04     1.877312e-20
 8.140000e+04     1.721241e-20
 8.220000e+04     1.551524e-20
 8.300000e+04     1.418236e-20
 8.380000e+04     1.324560e-20
 8.460000e+04     1.273109e-20
 8.540000e+04     1.257967e-20
 8.620000e+04     1.279108e-20
 8.700000e+04     1.314226e-20
 8.780000e+04     1.310071e-20
 8.860000e+04     1.244351e-20
 8.940000e+04     1.131511e-20
 9.020000e+04     1.010161e-20
 9.100000e+04     9.042709e-21
 9.180000e+04     8.109516e-21
 9.260000e+04     7.305183e-21
 9.340000e+04     6.689479e-21
 9.420000e+04     6.276630e-21
 9.500000e+04     6.004078e-21
 9.580000e+04     5.842213e-21
 9.660000e+04     5.919930e-21
 9.740000e+04     6.055236e-21
 9.820000e+04     6.009338e-21
 9.900000e+04     5.933735e-21
 9.980000e+04     5.761236e-21
 1.006000e+05     5.631453e-21
 1.020000e+05     5.625296e-21
 1.040000e+05     5.649738e-21
 1.060000e+05     6.292985e-21
 1.080000e+05     6.997519e-21
 1.100000e+05     7.736926e-21
 1.120000e+05     1.153542e-20
 1.140000e+05     1.817446e-20
 1.160000e+05     1.749243e-20
 1.180000e+05     1.434413e-20
 1.200000e+05     1.267465e-20
 1.220000e+05     1.165376e-20
 1.240000e+05     1.182828e-20
 1.260000e+05     1.295381e-20
 1.280000e+05     1.517337e-20
 1.300000e+05     1.584321e-20
 1.320000e+05     1.331429e-20
 1.340000e+05     1.096682e-20
 1.360000e+05     1.010108e-20
 1.380000e+05     9.119126e-21
 1.400000e+05     8.570644e-21
 1.420000e+05     8.506180e-21
 1.440000e+05     8.434174e-21
 1.460000e+05     8.053131e-21
 1.480000e+05     7.649299e-21
 1.500000e+05     7.468316e-21
 1.520000e+05     7.383104e-21
 1.540000e+05     7.430252e-21
 1.560000e+05     8.415580e-21
 1.580000e+05     8.994736e-21
 1.600000e+05     9.204214e-21
 1.620000e+05     9.070002e-21
 1.640000e+05     1.009109e-20
 1.660000e+05     1.146727e-20
 1.680000e+05     1.230944e-20
 1.700000e+05     1.324396e-20
 1.720000e+05     1.440793e-20
 1.740000e+05     1.494148e-20
 1.760000e+05     1.432686e-20
 1.780000e+05     1.348925e-20
 1.800000e+05     1.270734e-20
 1.820000e+05     1.191664e-20
 1.840000e+05     1.129373e-20
 1.860000e+05     1.100621e-20
 1.880000e+05     1.238002e-20
 1.900000e+05     1.281492e-20
 1.920000e+05     1.276307e-20
 1.940000e+05     1.191102e-20
 1.960000e+05     1.162519e-20
 1.980000e+05     1.157878e-20
 2.000000e+05     1.125849e-20
 2.020000e+05     1.120476e-20
 2.040000e+05     1.130294e-20
 2.060000e+05     1.145594e-20
 2.080000e+05     1.163699e-20
 2.100000e+05     1.183056e-20
 2.120000e+05     1.203209e-20
 2.140000e+05     1.223710e-20
 2.160000e+05     1.244577e-20
 2.180000e+05     1.266047e-20
 2.200000e+05     1.287958e-20
 2.220000e+05     1.310036e-20
 2.240000e+05     1.332797e-20
 2.260000e+05     1.355352e-20
 2.280000e+05     1.379196e-20
 2.300000e+05     1.402911e-20
 2.320000e+05     1.426825e-20
 2.340000e+05     1.450816e-20
 2.360000e+05     1.475157e-20
 2.380000e+05     1.499937e-20
 2.400000e+05     1.524967e-20
 2.420000e+05     1.550363e-20
 2.440000e+05     1.575676e-20
 2.460000e+05     1.601768e-20
 2.480000e+05     1.628116e-20
 2.500000e+05     1.654722e-20
 2.520000e+05     1.681521e-20
 2.540000e+05     1.708416e-20
 2.560000e+05     1.738505e-20
 2.580000e+05     1.784544e-20
 2.600000e+05     1.850876e-20
 2.620000e+05     1.900367e-20
 2.640000e+05     1.929516e-20
 2.660000e+05     1.949825e-20
 2.680000e+05     1.957315e-20
 2.700000e+05     1.971223e-20
 2.720000e+05     1.999385e-20
 2.740000e+05     2.027568e-20
 2.760000e+05     2.051367e-20
 2.780000e+05     2.076613e-20
 2.800000e+05     2.110616e-20
 2.820000e+05     2.161285e-20
 2.840000e+05     2.213429e-20
 2.860000e+05     2.251726e-20
 2.880000e+05     2.287181e-20
 2.900000e+05     2.318870e-20
 2.920000e+05     2.343851e-20
 2.940000e+05     2.376788e-20
 2.960000e+05     2.416334e-20
 2.980000e+05     2.455894e-20
 3.000000e+05     2.493573e-20
 3.020000e+05     2.530633e-20
 3.040000e+05     2.572497e-20
 3.060000e+05     2.617146e-20
 3.080000e+05     2.663144e-20
 3.100000e+05     2.710396e-20
 3.120000e+05     2.759368e-20
 3.140000e+05     2.809927e-20
 3.160000e+05     2.862405e-20
 3.180000e+05     2.917116e-20
 3.200000e+05     2.974485e-20
 3.220000e+05     3.036252e-20
 3.240000e+05     3.101810e-20
 3.260000e+05     3.172432e-20
 3.280000e+05     3.248233e-20
 3.300000e+05     3.328684e-20
 3.320000e+05     3.419599e-20
 3.340000e+05     3.601025e-20
 3.360000e+05     3.907932e-20
 3.380000e+05     4.078107e-20
 3.400000e+05     4.128762e-20
 3.420000e+05     4.161821e-20
 3.440000e+05     4.169485e-20
 3.460000e+05     4.113110e-20
 3.480000e+05     4.293517e-20
 3.500000e+05     4.679026e-20
 3.520000e+05     4.815872e-20
 3.540000e+05     4.844142e-20
 3.560000e+05     4.836553e-20
 3.580000e+05     4.772444e-20
 3.600000e+05     4.578162e-20
 3.620000e+05     4.467662e-20
 3.640000e+05     4.505975e-20
 3.660000e+05     4.570927e-20
 3.680000e+05     4.627278e-20
 3.700000e+05     4.642997e-20
 3.720000e+05     4.614117e-20
 3.740000e+05     4.626432e-20
 3.760000e+05     4.687407e-20
 3.780000e+05     4.757195e-20
 3.800000e+05     4.827525e-20
 3.820000e+05     4.897932e-20
 3.840000e+05     4.968282e-20
 3.860000e+05     5.038693e-20
 3.880000e+05     5.109113e-20
 3.900000e+05     5.179402e-20
 3.920000e+05     5.249697e-20
 4.320000e+05     6.649691e-20
 4.760000e+05     8.204808e-20
 5.250000e+05     9.929665e-20
 5.790000e+05     1.181648e-19
 6.390000e+05     1.391487e-19
 7.040000e+05     1.621213e-19
 7.760000e+05     2.107524e-19
 8.560000e+05     2.822833e-19
 9.430000e+05     3.696530e-19
 1.040000e+06     4.641725e-19
 1.147000e+06     5.540023e-19
 1.264000e+06     6.259700e-19
 1.394000e+06     6.709449e-19
 1.537000e+06     6.837250e-19
 1.694000e+06     6.650870e-19
 1.868000e+06     6.198589e-19
 2.059000e+06     5.558615e-19
 2.270000e+06     4.814019e-19
 2.503000e+06     4.041183e-19
 2.760000e+06     3.298706e-19
 3.043000e+06     2.627768e-19
 3.354000e+06     2.048115e-19
 3.698000e+06     1.564971e-19
