## EBL from Khaire & Srianand 2018; Q14 Model with alpha=-1.4 
## Column1:wavelength (Angstrom);  Column2:EBL specific intensity J_nu (erg/s/cm^2/Hz/Sr)
## ===========================================================================================
 1.000000e-08     3.468922e-37
 1.122019e-08     5.044215e-37
 1.258925e-08     7.226696e-37
 1.412538e-08     1.015669e-36
 1.584893e-08     1.400006e-36
 1.778279e-08     1.894981e-36
 1.995263e-08     2.522824e-36
 2.238721e-08     3.308989e-36
 2.511887e-08     4.282609e-36
 2.818382e-08     5.476966e-36
 3.162278e-08     6.930208e-36
 3.548135e-08     8.686055e-36
 3.981071e-08     1.079475e-35
 4.466837e-08     1.331419e-35
 5.011870e-08     1.631104e-35
 5.623413e-08     1.986239e-35
 6.309576e-08     2.405727e-35
 7.079456e-08     2.899863e-35
 7.943284e-08     3.480581e-35
 8.912505e-08     4.161678e-35
 1.000000e-07     4.959164e-35
 1.122019e-07     5.891570e-35
 1.258925e-07     6.980364e-35
 1.412538e-07     8.250468e-35
 1.584892e-07     9.730702e-35
 1.778279e-07     1.145456e-34
 1.995263e-07     1.346077e-34
 2.238721e-07     1.579426e-34
 2.511887e-07     1.850713e-34
 2.818382e-07     2.165972e-34
 3.162278e-07     2.532201e-34
 3.548136e-07     2.957506e-34
 3.981071e-07     3.451278e-34
 4.466837e-07     4.024417e-34
 5.011870e-07     4.689531e-34
 5.623413e-07     5.461257e-34
 6.309576e-07     6.356538e-34
 7.079456e-07     7.395006e-34
 7.943284e-07     8.599441e-34
 8.912505e-07     9.996196e-34
 1.000000e-06     1.161587e-33
 1.122019e-06     1.349386e-33
 1.258925e-06     1.567119e-33
 1.412538e-06     1.819549e-33
 1.584893e-06     2.112182e-33
 1.778279e-06     2.451406e-33
 1.995263e-06     2.844627e-33
 2.238721e-06     3.300416e-33
 2.511887e-06     3.828716e-33
 2.818382e-06     4.441039e-33
 3.162278e-06     5.150740e-33
 3.548136e-06     5.973280e-33
 3.981071e-06     6.926567e-33
 4.466837e-06     8.031390e-33
 5.011870e-06     9.311787e-33
 5.623413e-06     1.079567e-32
 6.309576e-06     1.251534e-32
 7.079456e-06     1.450822e-32
 7.943284e-06     1.681774e-32
 8.912505e-06     1.949412e-32
 1.000000e-05     2.259569e-32
 1.122019e-05     2.618993e-32
 1.258925e-05     3.035501e-32
 1.412538e-05     3.518170e-32
 1.584893e-05     4.077494e-32
 1.778279e-05     4.725651e-32
 1.995263e-05     5.476750e-32
 2.238721e-05     6.347124e-32
 2.511887e-05     7.355725e-32
 2.818382e-05     8.524487e-32
 3.162278e-05     9.878860e-32
 3.548135e-05     1.144831e-31
 3.981071e-05     1.326696e-31
 4.466837e-05     1.537441e-31
 5.011870e-05     1.781650e-31
 5.623413e-05     2.064638e-31
 6.309577e-05     2.392563e-31
 7.079457e-05     2.772554e-31
 7.943284e-05     3.212885e-31
 8.912505e-05     3.723130e-31
 1.000000e-04     4.314399e-31
 1.122018e-04     4.999545e-31
 1.258926e-04     5.792710e-31
 1.412538e-04     6.695346e-31
 1.584893e-04     7.733616e-31
 1.778279e-04     8.934901e-31
 1.995262e-04     1.032919e-30
 2.238722e-04     1.195060e-30
 2.511887e-04     1.383862e-30
 2.818383e-04     1.603959e-30
 3.162278e-04     1.860800e-30
 3.548134e-04     2.160810e-30
 3.981073e-04     2.511589e-30
 4.466837e-04     2.922115e-30
 5.011873e-04     3.403020e-30
 5.623413e-04     3.966895e-30
 6.309572e-04     4.628665e-30
 7.079460e-04     5.406038e-30
 7.943284e-04     6.320016e-30
 8.912510e-04     7.395552e-30
 1.000000e-03     8.662301e-30
 1.122018e-03     1.015551e-29
 1.258926e-03     1.191714e-29
 1.412538e-03     1.399708e-29
 1.584893e-03     1.645478e-29
 1.778279e-03     1.936110e-29
 1.995262e-03     2.280043e-29
 2.238722e-03     2.687349e-29
 2.511887e-03     3.170034e-29
 2.818383e-03     3.742435e-29
 3.162278e-03     4.421671e-29
 3.548133e-03     5.228178e-29
 3.981073e-03     6.186393e-29
 4.466837e-03     7.325506e-29
 5.011873e-03     8.680471e-29
 5.623413e-03     1.029322e-28
 6.309573e-03     1.221431e-28
 7.079460e-03     1.450524e-28
 7.943284e-03     1.724178e-28
 8.912510e-03     2.051884e-28
 1.000000e-02     2.445709e-28
 1.122019e-02     2.921156e-28
 1.258925e-02     3.498184e-28
 1.412538e-02     4.202373e-28
 1.584894e-02     5.066043e-28
 1.778279e-02     6.129377e-28
 1.995263e-02     7.441430e-28
 2.238721e-02     9.060928e-28
 2.511887e-02     1.105715e-27
 2.818385e-02     1.351068e-27
 3.162277e-02     1.651438e-27
 3.548136e-02     2.017485e-27
 3.981071e-02     2.461389e-27
 4.466837e-02     2.997135e-27
 5.011876e-02     3.640791e-27
 5.623413e-02     4.410930e-27
 6.309576e-02     5.329177e-27
 7.079456e-02     6.420768e-27
 7.943284e-02     7.715397e-27
 8.912515e-02     9.248050e-27
 1.000000e-01     1.106011e-26
 1.122019e-01     1.320196e-26
 1.258925e-01     1.568061e-26
 1.412538e-01     1.843914e-26
 1.584894e-01     2.143685e-26
 1.778279e-01     2.464309e-26
 1.995263e-01     2.803356e-26
 2.238721e-01     3.158819e-26
 2.511887e-01     3.529042e-26
 2.818385e-01     3.912671e-26
 3.162278e-01     4.305403e-26
 3.548135e-01     4.673034e-26
 3.981071e-01     5.035532e-26
 4.466837e-01     5.403904e-26
 5.011876e-01     5.784241e-26
 5.623413e-01     6.180361e-26
 6.309576e-01     6.595324e-26
 7.079456e-01     7.032220e-26
 7.943284e-01     7.494616e-26
 8.912515e-01     7.986776e-26
 1.000000e+00     8.513847e-26
 1.122019e+00     9.082017e-26
 1.258925e+00     9.698649e-26
 1.412538e+00     1.037252e-25
 1.584894e+00     1.111401e-25
 1.778279e+00     1.193539e-25
 1.995263e+00     1.285118e-25
 2.238721e+00     1.387850e-25
 2.511887e+00     1.503760e-25
 2.818385e+00     1.635235e-25
 3.162278e+00     1.785091e-25
 3.548136e+00     1.956655e-25
 3.981071e+00     2.153834e-25
 4.466837e+00     2.381235e-25
 5.011876e+00     2.644252e-25
 5.623413e+00     2.949181e-25
 6.309576e+00     3.302655e-25
 7.079456e+00     3.703973e-25
 7.943284e+00     4.168601e-25
 8.912516e+00     4.710604e-25
 1.000000e+01     5.343560e-25
 1.122019e+01     6.080849e-25
 1.258925e+01     6.935039e-25
 1.412538e+01     7.917577e-25
 1.584894e+01     9.037728e-25
 1.778279e+01     1.030221e-24
 1.995263e+01     1.170573e-24
 2.238721e+01     1.319909e-24
 2.511887e+01     1.478391e-24
 2.818385e+01     1.619027e-24
 3.162278e+01     1.800157e-24
 3.548135e+01     1.957308e-24
 3.981071e+01     2.105881e-24
 4.466837e+01     2.224838e-24
 5.011876e+01     2.311486e-24
 5.623413e+01     2.386080e-24
 6.309576e+01     2.448850e-24
 7.079456e+01     2.507916e-24
 7.943284e+01     2.572420e-24
 8.912515e+01     2.647076e-24
 1.000000e+02     2.733695e-24
 1.120000e+02     2.821841e-24
 1.250000e+02     2.904404e-24
 1.400000e+02     2.977583e-24
 1.550000e+02     3.030250e-24
 1.650000e+02     3.054920e-24
 1.750000e+02     3.072953e-24
 1.850000e+02     3.087479e-24
 1.900000e+02     3.099734e-24
 1.950000e+02     3.121502e-24
 2.000000e+02     3.170463e-24
 2.050000e+02     3.284427e-24
 2.100000e+02     3.537486e-24
 2.150000e+02     4.082769e-24
 2.180000e+02     4.668760e-24
 2.210000e+02     5.559817e-24
 2.240000e+02     6.910224e-24
 2.260000e+02     8.165737e-24
 2.270000e+02     8.932860e-24
 2.275000e+02     9.355361e-24
 2.278400e+02     9.661047e-24
 2.380000e+02     2.089375e-23
 2.500000e+02     3.233247e-23
 2.700000e+02     4.655681e-23
 2.900000e+02     5.768204e-23
 3.035000e+02     6.384302e-23
 3.037800e+02     1.355256e-22
 3.045000e+02     1.335839e-22
 3.060000e+02     1.301633e-22
 3.080000e+02     1.257176e-22
 3.100000e+02     1.218283e-22
 3.120000e+02     1.180397e-22
 3.150000e+02     1.131536e-22
 3.200000e+02     1.059442e-22
 3.250000e+02     1.001725e-22
 3.300000e+02     9.566617e-23
 3.400000e+02     8.985630e-23
 3.600000e+02     8.658347e-23
 3.800000e+02     8.913257e-23
 4.050000e+02     9.493655e-23
 4.250000e+02     1.002972e-22
 4.500000e+02     1.069229e-22
 4.650000e+02     1.109811e-22
 4.750000e+02     1.136535e-22
 4.820000e+02     1.155365e-22
 4.870000e+02     1.169173e-22
 4.910000e+02     1.179509e-22
 4.950000e+02     1.190716e-22
 4.980000e+02     1.198168e-22
 5.000000e+02     1.203449e-22
 5.020000e+02     1.208750e-22
 5.039800e+02     1.214689e-22
 5.100000e+02     1.245626e-22
 5.250000e+02     1.319583e-22
 5.600000e+02     1.461820e-22
 6.000000e+02     1.600351e-22
 6.500000e+02     1.760576e-22
 7.000000e+02     1.931710e-22
 7.500000e+02     2.135881e-22
 8.000000e+02     2.398303e-22
 8.300000e+02     2.591237e-22
 8.600000e+02     2.826019e-22
 8.800000e+02     3.005236e-22
 8.900000e+02     3.106491e-22
 8.960000e+02     3.168717e-22
 9.000000e+02     3.209757e-22
 9.030000e+02     3.243911e-22
 9.060000e+02     3.276565e-22
 9.090000e+02     3.311468e-22
 9.117800e+02     3.342634e-22
 9.300000e+02     8.000896e-22
 9.500000e+02     1.349866e-21
 9.750000e+02     2.387711e-21
 9.900000e+02     2.885699e-21
 1.005000e+03     3.466773e-21
 1.025000e+03     4.458127e-21
 1.045000e+03     5.327177e-21
 1.065000e+03     6.532284e-21
 1.085000e+03     7.764278e-21
 1.105000e+03     8.974081e-21
 1.125000e+03     1.029724e-20
 1.145000e+03     1.147901e-20
 1.165000e+03     1.283406e-20
 1.185000e+03     1.399672e-20
 1.205000e+03     1.517714e-20
 1.215600e+03     1.575413e-20
 1.215670e+03     1.677120e-20
 1.216000e+03     1.678700e-20
 1.218000e+03     1.687692e-20
 1.221000e+03     1.699283e-20
 1.225000e+03     1.712187e-20
 1.230000e+03     1.731921e-20
 1.240000e+03     1.786045e-20
 1.250000e+03     1.844468e-20
 1.265000e+03     1.949925e-20
 1.285000e+03     2.082880e-20
 1.305000e+03     2.222422e-20
 1.325000e+03     2.339818e-20
 1.345000e+03     2.473770e-20
 1.365000e+03     2.602262e-20
 1.385000e+03     2.735958e-20
 1.405000e+03     2.853552e-20
 1.425000e+03     2.966868e-20
 1.442000e+03     3.065663e-20
 1.455000e+03     3.141499e-20
 1.475000e+03     3.260758e-20
 1.517000e+03     3.465966e-20
 1.595000e+03     3.791106e-20
 1.672000e+03     4.078112e-20
 1.745000e+03     4.312236e-20
 1.825000e+03     4.545738e-20
 1.905000e+03     4.723002e-20
 1.984000e+03     4.866247e-20
 2.065000e+03     4.976211e-20
 2.135000e+03     5.037376e-20
 2.215000e+03     5.092757e-20
 2.295000e+03     5.136233e-20
 2.375000e+03     5.187825e-20
 2.455000e+03     5.240749e-20
 2.525000e+03     5.282987e-20
 2.605000e+03     5.345604e-20
 2.685000e+03     5.426752e-20
 2.765000e+03     5.490500e-20
 2.845000e+03     5.535441e-20
 2.950000e+03     5.616178e-20
 3.110000e+03     5.735399e-20
 3.270000e+03     5.828952e-20
 3.430000e+03     5.910128e-20
 3.590000e+03     5.979901e-20
 3.730000e+03     6.080190e-20
 3.890000e+03     6.484648e-20
 4.050000e+03     6.904296e-20
 4.210000e+03     7.515433e-20
 4.370000e+03     8.033787e-20
 4.530000e+03     8.513664e-20
 4.690000e+03     8.967761e-20
 4.850000e+03     9.307587e-20
 5.010000e+03     9.617752e-20
 5.170000e+03     9.892686e-20
 5.330000e+03     1.015158e-19
 5.490000e+03     1.038790e-19
 5.650000e+03     1.061344e-19
 5.810000e+03     1.083383e-19
 5.970000e+03     1.100748e-19
 6.130000e+03     1.118070e-19
 6.290000e+03     1.132976e-19
 6.450000e+03     1.146320e-19
 6.610000e+03     1.158296e-19
 6.770000e+03     1.170694e-19
 6.930000e+03     1.181752e-19
 7.090000e+03     1.191514e-19
 7.250000e+03     1.200495e-19
 7.410000e+03     1.209150e-19
 7.570000e+03     1.217940e-19
 7.730000e+03     1.227544e-19
 7.890000e+03     1.236298e-19
 8.050000e+03     1.244029e-19
 8.210000e+03     1.251948e-19
 8.370000e+03     1.259382e-19
 8.530000e+03     1.266255e-19
 8.690000e+03     1.273456e-19
 8.850000e+03     1.282645e-19
 9.010000e+03     1.290970e-19
 9.170000e+03     1.298579e-19
 9.330000e+03     1.309054e-19
 9.490000e+03     1.318835e-19
 9.650000e+03     1.327139e-19
 9.810000e+03     1.335819e-19
 9.970000e+03     1.344455e-19
 1.050000e+04     1.365901e-19
 1.150000e+04     1.386524e-19
 1.250000e+04     1.398407e-19
 1.350000e+04     1.405092e-19
 1.450000e+04     1.412089e-19
 1.550000e+04     1.427023e-19
 1.650000e+04     1.437149e-19
 1.750000e+04     1.431990e-19
 1.850000e+04     1.411349e-19
 1.950000e+04     1.378242e-19
 2.050000e+04     1.341724e-19
 2.150000e+04     1.302570e-19
 2.250000e+04     1.259749e-19
 2.350000e+04     1.206321e-19
 2.450000e+04     1.145451e-19
 2.550000e+04     1.094001e-19
 2.650000e+04     1.044776e-19
 2.750000e+04     1.003557e-19
 2.850000e+04     9.661546e-20
 2.950000e+04     9.314472e-20
 3.050000e+04     8.988166e-20
 3.150000e+04     8.680360e-20
 3.250000e+04     8.388169e-20
 3.350000e+04     8.111630e-20
 3.450000e+04     7.852693e-20
 3.550000e+04     7.613620e-20
 3.650000e+04     7.391397e-20
 3.750000e+04     7.184639e-20
 3.850000e+04     6.994483e-20
 3.950000e+04     6.831666e-20
 4.050000e+04     6.710620e-20
 4.150000e+04     6.565822e-20
 4.250000e+04     6.401240e-20
 4.350000e+04     6.230438e-20
 4.450000e+04     6.069654e-20
 4.550000e+04     5.925608e-20
 4.650000e+04     5.815544e-20
 4.750000e+04     5.738149e-20
 4.850000e+04     5.686508e-20
 4.950000e+04     5.659840e-20
 5.050000e+04     5.663607e-20
 5.150000e+04     5.704821e-20
 5.250000e+04     5.788959e-20
 5.350000e+04     5.918412e-20
 5.450000e+04     6.094023e-20
 5.550000e+04     6.316403e-20
 5.650000e+04     6.591234e-20
 5.750000e+04     6.913471e-20
 5.850000e+04     7.150003e-20
 5.950000e+04     7.335539e-20
 6.050000e+04     7.622536e-20
 6.150000e+04     8.184949e-20
 6.250000e+04     9.571606e-20
 6.350000e+04     1.054027e-19
 6.450000e+04     1.093479e-19
 6.550000e+04     1.125817e-19
 6.650010e+04     1.156091e-19
 6.750010e+04     1.190423e-19
 6.850010e+04     1.220947e-19
 6.950010e+04     1.267768e-19
 7.020000e+04     1.313255e-19
 7.100000e+04     1.358986e-19
 7.180000e+04     1.402834e-19
 7.260000e+04     1.448235e-19
 7.340000e+04     1.504807e-19
 7.420000e+04     1.585508e-19
 7.500000e+04     1.697246e-19
 7.580000e+04     1.837764e-19
 7.660000e+04     1.993354e-19
 7.740000e+04     2.141747e-19
 7.820000e+04     2.280044e-19
 7.900000e+04     2.403976e-19
 7.980000e+04     2.500219e-19
 8.060000e+04     2.569361e-19
 8.140000e+04     2.616553e-19
 8.220000e+04     2.652019e-19
 8.300000e+04     2.681225e-19
 8.380000e+04     2.707335e-19
 8.460000e+04     2.735099e-19
 8.540000e+04     2.767663e-19
 8.620000e+04     2.804837e-19
 8.700000e+04     2.833758e-19
 8.780000e+04     2.843688e-19
 8.860000e+04     2.837041e-19
 8.940000e+04     2.821954e-19
 9.020000e+04     2.800925e-19
 9.100000e+04     2.774626e-19
 9.180000e+04     2.746495e-19
 9.260000e+04     2.717897e-19
 9.340000e+04     2.689421e-19
 9.420000e+04     2.663510e-19
 9.500000e+04     2.641838e-19
 9.580000e+04     2.622270e-19
 9.660000e+04     2.609524e-19
 9.740000e+04     2.599864e-19
 9.820000e+04     2.585824e-19
 9.900000e+04     2.569933e-19
 9.980000e+04     2.554876e-19
 1.006000e+05     2.541696e-19
 1.020000e+05     2.521108e-19
 1.040000e+05     2.498701e-19
 1.060000e+05     2.493720e-19
 1.080000e+05     2.492251e-19
 1.100000e+05     2.493584e-19
 1.120000e+05     2.567716e-19
 1.140000e+05     2.755640e-19
 1.160000e+05     2.807127e-19
 1.180000e+05     2.842617e-19
 1.200000e+05     2.893988e-19
 1.220000e+05     2.965198e-19
 1.240000e+05     3.057010e-19
 1.260000e+05     3.178829e-19
 1.280000e+05     3.395859e-19
 1.300000e+05     3.605667e-19
 1.320000e+05     3.614193e-19
 1.340000e+05     3.690732e-19
 1.360000e+05     3.733890e-19
 1.380000e+05     3.786205e-19
 1.400000e+05     3.828959e-19
 1.420000e+05     3.890027e-19
 1.440000e+05     3.954933e-19
 1.460000e+05     4.021498e-19
 1.480000e+05     4.092075e-19
 1.500000e+05     4.164496e-19
 1.520000e+05     4.232337e-19
 1.540000e+05     4.297764e-19
 1.560000e+05     4.387432e-19
 1.580000e+05     4.461799e-19
 1.600000e+05     4.508092e-19
 1.620000e+05     4.562724e-19
 1.640000e+05     4.628700e-19
 1.660000e+05     4.728364e-19
 1.680000e+05     4.812280e-19
 1.700000e+05     4.921622e-19
 1.720000e+05     5.048276e-19
 1.740000e+05     5.144766e-19
 1.760000e+05     5.226199e-19
 1.780000e+05     5.289091e-19
 1.800000e+05     5.349141e-19
 1.820000e+05     5.394704e-19
 1.840000e+05     5.440950e-19
 1.860000e+05     5.491151e-19
 1.880000e+05     5.594910e-19
 1.900000e+05     5.670036e-19
 1.920000e+05     5.749816e-19
 1.940000e+05     5.845266e-19
 1.960000e+05     5.958644e-19
 1.980000e+05     6.085959e-19
 2.000000e+05     6.222937e-19
 2.020000e+05     6.368560e-19
 2.040000e+05     6.531427e-19
 2.060000e+05     6.690111e-19
 2.080000e+05     6.852173e-19
 2.100000e+05     7.037100e-19
 2.120000e+05     7.224669e-19
 2.140000e+05     7.409161e-19
 2.160000e+05     7.620049e-19
 2.180000e+05     7.844103e-19
 2.200000e+05     8.056116e-19
 2.220000e+05     8.277990e-19
 2.240000e+05     8.523501e-19
 2.260000e+05     8.764086e-19
 2.280000e+05     8.999713e-19
 2.300000e+05     9.254509e-19
 2.320000e+05     9.529661e-19
 2.340000e+05     9.809520e-19
 2.360000e+05     1.009071e-18
 2.380000e+05     1.039008e-18
 2.400000e+05     1.071108e-18
 2.420000e+05     1.104188e-18
 2.440000e+05     1.137595e-18
 2.460000e+05     1.172690e-18
 2.480000e+05     1.210082e-18
 2.500000e+05     1.248499e-18
 2.520000e+05     1.287087e-18
 2.540000e+05     1.327067e-18
 2.560000e+05     1.369136e-18
 2.580000e+05     1.413131e-18
 2.600000e+05     1.458201e-18
 2.620000e+05     1.503381e-18
 2.640000e+05     1.548967e-18
 2.660000e+05     1.595754e-18
 2.680000e+05     1.644391e-18
 2.700000e+05     1.692929e-18
 2.720000e+05     1.740981e-18
 2.740000e+05     1.789069e-18
 2.760000e+05     1.838743e-18
 2.780000e+05     1.890174e-18
 2.800000e+05     1.944047e-18
 2.820000e+05     2.000066e-18
 2.840000e+05     2.055812e-18
 2.860000e+05     2.111032e-18
 2.880000e+05     2.166940e-18
 2.900000e+05     2.224787e-18
 2.920000e+05     2.284356e-18
 2.940000e+05     2.344418e-18
 2.960000e+05     2.405988e-18
 2.980000e+05     2.468062e-18
 3.000000e+05     2.529645e-18
 3.020000e+05     2.592740e-18
 3.040000e+05     2.657767e-18
 3.060000e+05     2.723588e-18
 3.080000e+05     2.790218e-18
 3.100000e+05     2.856908e-18
 3.120000e+05     2.923472e-18
 3.140000e+05     2.992788e-18
 3.160000e+05     3.063074e-18
 3.180000e+05     3.134823e-18
 3.200000e+05     3.209632e-18
 3.220000e+05     3.283886e-18
 3.240000e+05     3.359216e-18
 3.260000e+05     3.437457e-18
 3.280000e+05     3.514474e-18
 3.300000e+05     3.591820e-18
 3.320000e+05     3.668524e-18
 3.340000e+05     3.754438e-18
 3.360000e+05     3.848212e-18
 3.380000e+05     3.935090e-18
 3.400000e+05     4.007904e-18
 3.420000e+05     4.085177e-18
 3.440000e+05     4.163684e-18
 3.460000e+05     4.236822e-18
 3.480000e+05     4.328524e-18
 3.500000e+05     4.430928e-18
 3.520000e+05     4.524012e-18
 3.540000e+05     4.608122e-18
 3.560000e+05     4.687166e-18
 3.580000e+05     4.761527e-18
 3.600000e+05     4.840445e-18
 3.620000e+05     4.923018e-18
 3.640000e+05     5.001384e-18
 3.660000e+05     5.077563e-18
 3.680000e+05     5.158419e-18
 3.700000e+05     5.242221e-18
 3.720000e+05     5.324506e-18
 3.740000e+05     5.405890e-18
 3.760000e+05     5.491398e-18
 3.780000e+05     5.578817e-18
 3.800000e+05     5.665031e-18
 3.820000e+05     5.751646e-18
 3.840000e+05     5.841921e-18
 3.860000e+05     5.934069e-18
 3.880000e+05     6.025769e-18
 3.900000e+05     6.118150e-18
 3.920000e+05     6.213176e-18
 4.320000e+05     8.213110e-18
 4.760000e+05     1.051891e-17
 5.250000e+05     1.302554e-17
 5.790000e+05     1.556417e-17
 6.390000e+05     1.801368e-17
 7.040000e+05     2.008033e-17
 7.760000e+05     2.159581e-17
 8.560000e+05     2.243847e-17
 9.430000e+05     2.258193e-17
 1.040000e+06     2.210723e-17
 1.147000e+06     2.114428e-17
 1.264000e+06     1.985916e-17
 1.394000e+06     1.838592e-17
 1.537000e+06     1.686180e-17
 1.694000e+06     1.536943e-17
 1.868000e+06     1.394450e-17
 2.059000e+06     1.261322e-17
 2.270000e+06     1.136162e-17
 2.503000e+06     1.017516e-17
 2.760000e+06     9.039620e-18
 3.043000e+06     7.948416e-18
 3.354000e+06     6.903760e-18
 3.698000e+06     5.908100e-18
