## EBL from Khaire & Srianand 2018; Q14 Model with alpha=-1.4 
## Column1:wavelength (Angstrom);  Column2:EBL specific intensity J_nu (erg/s/cm^2/Hz/Sr)
## ===========================================================================================
 1.000000e-08     9.855919e-44
 1.122019e-08     1.434738e-43
 1.258925e-08     2.043061e-43
 1.412538e-08     2.845757e-43
 1.584893e-08     3.885490e-43
 1.778279e-08     5.211421e-43
 1.995263e-08     6.879674e-43
 2.238721e-08     8.954225e-43
 2.511887e-08     1.150816e-42
 2.818382e-08     1.462499e-42
 3.162278e-08     1.840049e-42
 3.548135e-08     2.294453e-42
 3.981071e-08     2.838356e-42
 4.466837e-08     3.486338e-42
 5.011870e-08     4.255210e-42
 5.623413e-08     5.164422e-42
 6.309576e-08     6.236448e-42
 7.079456e-08     7.497293e-42
 7.943284e-08     8.977108e-42
 8.912505e-08     1.071076e-41
 1.000000e-07     1.273872e-41
 1.122019e-07     1.510784e-41
 1.258925e-07     1.787238e-41
 1.412538e-07     2.109535e-41
 1.584892e-07     2.484962e-41
 1.778279e-07     2.921986e-41
 1.995263e-07     3.430403e-41
 2.238721e-07     4.021568e-41
 2.511887e-07     4.708655e-41
 2.818382e-07     5.506915e-41
 3.162278e-07     6.434046e-41
 3.548136e-07     7.510541e-41
 3.981071e-07     8.760140e-41
 4.466837e-07     1.021040e-40
 5.011870e-07     1.189319e-40
 5.623413e-07     1.384552e-40
 6.309576e-07     1.611023e-40
 7.079456e-07     1.873693e-40
 7.943284e-07     2.178323e-40
 8.912505e-07     2.531574e-40
 1.000000e-06     2.941180e-40
 1.122019e-06     3.416093e-40
 1.258925e-06     3.966682e-40
 1.412538e-06     4.604986e-40
 1.584893e-06     5.344924e-40
 1.778279e-06     6.202651e-40
 1.995263e-06     7.196882e-40
 2.238721e-06     8.349284e-40
 2.511887e-06     9.684998e-40
 2.818382e-06     1.123312e-39
 3.162278e-06     1.302741e-39
 3.548136e-06     1.510696e-39
 3.981071e-06     1.751704e-39
 4.466837e-06     2.031020e-39
 5.011870e-06     2.354720e-39
 5.623413e-06     2.729862e-39
 6.309576e-06     3.164609e-39
 7.079456e-06     3.668423e-39
 7.943284e-06     4.252281e-39
 8.912505e-06     4.928882e-39
 1.000000e-05     5.712968e-39
 1.122019e-05     6.621597e-39
 1.258925e-05     7.674535e-39
 1.412538e-05     8.894724e-39
 1.584893e-05     1.030869e-38
 1.778279e-05     1.194722e-38
 1.995263e-05     1.384599e-38
 2.238721e-05     1.604627e-38
 2.511887e-05     1.859598e-38
 2.818382e-05     2.155058e-38
 3.162278e-05     2.497438e-38
 3.548135e-05     2.894187e-38
 3.981071e-05     3.353935e-38
 4.466837e-05     3.886691e-38
 5.011870e-05     4.504037e-38
 5.623413e-05     5.219418e-38
 6.309577e-05     6.048394e-38
 7.079457e-05     7.008990e-38
 7.943284e-05     8.122123e-38
 8.912505e-05     9.411991e-38
 1.000000e-04     1.090668e-37
 1.122018e-04     1.263869e-37
 1.258926e-04     1.464327e-37
 1.412538e-04     1.690322e-37
 1.584893e-04     1.951458e-37
 1.778279e-04     2.254739e-37
 1.995262e-04     2.607473e-37
 2.238722e-04     3.018141e-37
 2.511887e-04     3.496716e-37
 2.818383e-04     4.054970e-37
 3.162278e-04     4.706798e-37
 3.548134e-04     5.468614e-37
 3.981073e-04     6.359831e-37
 4.466837e-04     7.403411e-37
 5.011873e-04     8.626552e-37
 5.623413e-04     1.006148e-36
 6.309572e-04     1.174641e-36
 7.079460e-04     1.372669e-36
 7.943284e-04     1.605614e-36
 8.912510e-04     1.879873e-36
 1.000000e-03     2.203046e-36
 1.122018e-03     2.584177e-36
 1.258926e-03     3.034030e-36
 1.412538e-03     3.565408e-36
 1.584893e-03     4.193575e-36
 1.778279e-03     4.936719e-36
 1.995262e-03     5.816527e-36
 2.238722e-03     6.858867e-36
 2.511887e-03     8.094595e-36
 2.818383e-03     9.560560e-36
 3.162278e-03     1.130077e-35
 3.548133e-03     1.336778e-35
 3.981073e-03     1.582443e-35
 4.466837e-03     1.874583e-35
 5.011873e-03     2.222195e-35
 5.623413e-03     2.636085e-35
 6.309573e-03     3.129316e-35
 7.079460e-03     3.717850e-35
 7.943284e-03     4.421481e-35
 8.912510e-03     5.265210e-35
 1.000000e-02     6.281073e-35
 1.122019e-02     7.510469e-35
 1.258925e-02     9.006796e-35
 1.412538e-02     1.083835e-34
 1.584894e-02     1.309094e-34
 1.778279e-02     1.587032e-34
 1.995263e-02     1.930438e-34
 2.238721e-02     2.354459e-34
 2.511887e-02     2.876797e-34
 2.818385e-02     3.517873e-34
 3.162277e-02     4.301080e-34
 3.548136e-02     5.253177e-34
 3.981071e-02     6.404705e-34
 4.466837e-02     7.790757e-34
 5.011876e-02     9.451750e-34
 5.623413e-02     1.143455e-33
 6.309576e-02     1.379390e-33
 7.079456e-02     1.659391e-33
 7.943284e-02     1.991021e-33
 8.912515e-02     2.383214e-33
 1.000000e-01     2.846556e-33
 1.122019e-01     3.394000e-33
 1.258925e-01     4.021711e-33
 1.412538e-01     4.704187e-33
 1.584894e-01     5.433896e-33
 1.778279e-01     6.206104e-33
 1.995263e-01     7.016682e-33
 2.238721e-01     7.861898e-33
 2.511887e-01     8.738570e-33
 2.818385e-01     9.644106e-33
 3.162278e-01     1.056675e-32
 3.548135e-01     1.137651e-32
 3.981071e-01     1.219894e-32
 4.466837e-01     1.305568e-32
 5.011876e-01     1.395147e-32
 5.623413e-01     1.489028e-32
 6.309576e-01     1.587034e-32
 7.079456e-01     1.690777e-32
 7.943284e-01     1.800753e-32
 8.912515e-01     1.917857e-32
 1.000000e+00     2.043171e-32
 1.122019e+00     2.177910e-32
 1.258925e+00     2.323367e-32
 1.412538e+00     2.480849e-32
 1.584894e+00     2.651524e-32
 1.778279e+00     2.836193e-32
 1.995263e+00     3.034911e-32
 2.238721e+00     3.246386e-32
 2.511887e+00     3.467122e-32
 2.818385e+00     3.690266e-32
 3.162278e+00     3.904290e-32
 3.548136e+00     4.091917e-32
 3.981071e+00     4.230120e-32
 4.466837e+00     4.292474e-32
 5.011876e+00     4.254769e-32
 5.623413e+00     4.099832e-32
 6.309576e+00     3.837275e-32
 7.079456e+00     3.471263e-32
 7.943284e+00     3.059853e-32
 8.912516e+00     2.637924e-32
 1.000000e+01     2.234545e-32
 1.122019e+01     1.867329e-32
 1.258925e+01     1.545772e-32
 1.412538e+01     1.271602e-32
 1.584894e+01     1.042198e-32
 1.778279e+01     8.527019e-33
 1.995263e+01     6.974237e-33
 2.238721e+01     5.707856e-33
 2.511887e+01     4.676596e-33
 2.818385e+01     3.838015e-33
 3.162278e+01     3.155995e-33
 3.548135e+01     2.600392e-33
 3.981071e+01     2.147439e-33
 4.466837e+01     1.777607e-33
 5.011876e+01     1.475214e-33
 5.623413e+01     1.227259e-33
 6.309576e+01     1.023885e-33
 7.079456e+01     8.566382e-34
 7.943284e+01     7.189913e-34
 8.912515e+01     6.054427e-34
 1.000000e+02     5.118149e-34
 1.120000e+02     4.354854e-34
 1.250000e+02     3.739706e-34
 1.400000e+02     3.211828e-34
 1.550000e+02     2.814322e-34
 1.650000e+02     2.601455e-34
 1.750000e+02     2.422614e-34
 1.850000e+02     2.277842e-34
 1.900000e+02     2.231374e-34
 1.950000e+02     2.223672e-34
 2.000000e+02     2.297358e-34
 2.050000e+02     2.542086e-34
 2.100000e+02     3.138337e-34
 2.150000e+02     4.435603e-34
 2.180000e+02     5.803648e-34
 2.210000e+02     7.871135e-34
 2.240000e+02     1.095149e-33
 2.260000e+02     1.377788e-33
 2.270000e+02     1.548315e-33
 2.275000e+02     1.641921e-33
 2.278400e+02     1.708977e-33
 2.380000e+02     1.185401e-24
 2.500000e+02     1.211450e-24
 2.700000e+02     1.253315e-24
 2.900000e+02     1.293173e-24
 3.035000e+02     1.318945e-24
 3.037800e+02     1.319488e-24
 3.045000e+02     1.320799e-24
 3.060000e+02     1.323582e-24
 3.080000e+02     1.327304e-24
 3.100000e+02     1.331018e-24
 3.120000e+02     1.334710e-24
 3.150000e+02     1.340193e-24
 3.200000e+02     1.349256e-24
 3.250000e+02     1.358167e-24
 3.300000e+02     1.366975e-24
 3.400000e+02     1.384294e-24
 3.600000e+02     1.417661e-24
 3.800000e+02     1.449555e-24
 4.050000e+02     1.487529e-24
 4.250000e+02     1.516882e-24
 4.500000e+02     1.551982e-24
 4.650000e+02     1.573355e-24
 4.750000e+02     1.587275e-24
 4.820000e+02     1.596926e-24
 4.870000e+02     1.603689e-24
 4.910000e+02     1.609099e-24
 4.950000e+02     1.614473e-24
 4.980000e+02     1.618448e-24
 5.000000e+02     1.621117e-24
 5.020000e+02     1.624098e-24
 5.039800e+02     1.627113e-24
 5.100000e+02     2.302854e-24
 5.250000e+02     2.316112e-24
 5.600000e+02     2.348944e-24
 6.000000e+02     2.395984e-24
 6.500000e+02     2.499051e-24
 7.000000e+02     2.670512e-24
 7.500000e+02     2.958230e-24
 8.000000e+02     3.390221e-24
 8.300000e+02     3.744718e-24
 8.600000e+02     4.180706e-24
 8.800000e+02     4.521676e-24
 8.900000e+02     4.708367e-24
 8.960000e+02     4.825706e-24
 9.000000e+02     4.906035e-24
 9.030000e+02     4.967719e-24
 9.060000e+02     5.030225e-24
 9.090000e+02     5.094063e-24
 9.117800e+02     5.153904e-24
 9.300000e+02     9.787631e-22
 9.500000e+02     2.064838e-21
 9.750000e+02     4.351181e-21
 9.900000e+02     5.048816e-21
 1.005000e+03     6.097173e-21
 1.025000e+03     7.719844e-21
 1.045000e+03     9.049537e-21
 1.065000e+03     1.074541e-20
 1.085000e+03     1.241056e-20
 1.105000e+03     1.379383e-20
 1.125000e+03     1.529034e-20
 1.145000e+03     1.629505e-20
 1.165000e+03     1.727218e-20
 1.185000e+03     1.781214e-20
 1.205000e+03     1.820551e-20
 1.215600e+03     1.830827e-20
 1.215670e+03     2.339669e-20
 1.216000e+03     2.339787e-20
 1.218000e+03     2.340122e-20
 1.221000e+03     2.339464e-20
 1.225000e+03     2.337054e-20
 1.230000e+03     2.335349e-20
 1.240000e+03     2.335693e-20
 1.250000e+03     2.330448e-20
 1.265000e+03     2.329127e-20
 1.285000e+03     2.350216e-20
 1.305000e+03     2.382747e-20
 1.325000e+03     2.387268e-20
 1.345000e+03     2.378325e-20
 1.365000e+03     2.410441e-20
 1.385000e+03     2.426486e-20
 1.405000e+03     2.419258e-20
 1.425000e+03     2.394896e-20
 1.442000e+03     2.388059e-20
 1.455000e+03     2.404488e-20
 1.475000e+03     2.414166e-20
 1.517000e+03     2.131220e-20
 1.595000e+03     2.102056e-20
 1.672000e+03     2.073104e-20
 1.745000e+03     2.045325e-20
 1.825000e+03     2.024046e-20
 1.905000e+03     1.991414e-20
 1.984000e+03     1.962843e-20
 2.065000e+03     1.936023e-20
 2.135000e+03     1.903047e-20
 2.215000e+03     1.872087e-20
 2.295000e+03     1.837975e-20
 2.375000e+03     1.803847e-20
 2.455000e+03     1.771954e-20
 2.525000e+03     1.740481e-20
 2.605000e+03     1.713752e-20
 2.685000e+03     1.697022e-20
 2.765000e+03     1.676232e-20
 2.845000e+03     1.650650e-20
 2.950000e+03     1.627493e-20
 3.110000e+03     1.596388e-20
 3.270000e+03     1.558587e-20
 3.430000e+03     1.520904e-20
 3.590000e+03     1.485682e-20
 3.730000e+03     1.473071e-20
 3.890000e+03     1.571261e-20
 4.050000e+03     1.644149e-20
 4.210000e+03     1.795570e-20
 4.370000e+03     1.908792e-20
 4.530000e+03     1.992658e-20
 4.690000e+03     2.051025e-20
 4.850000e+03     2.068922e-20
 5.010000e+03     2.058055e-20
 5.170000e+03     2.042955e-20
 5.330000e+03     2.022346e-20
 5.490000e+03     2.005031e-20
 5.650000e+03     1.992588e-20
 5.810000e+03     1.985953e-20
 5.970000e+03     1.975625e-20
 6.130000e+03     1.972258e-20
 6.290000e+03     1.964612e-20
 6.450000e+03     1.960753e-20
 6.610000e+03     1.955383e-20
 6.770000e+03     1.953788e-20
 6.930000e+03     1.950046e-20
 7.090000e+03     1.944671e-20
 7.250000e+03     1.938627e-20
 7.410000e+03     1.935266e-20
 7.570000e+03     1.934728e-20
 7.730000e+03     1.939027e-20
 7.890000e+03     1.941537e-20
 8.050000e+03     1.943453e-20
 8.210000e+03     1.946076e-20
 8.370000e+03     1.949037e-20
 8.530000e+03     1.952785e-20
 8.690000e+03     1.959224e-20
 8.850000e+03     1.972375e-20
 9.010000e+03     1.983588e-20
 9.170000e+03     1.993776e-20
 9.330000e+03     2.005688e-20
 9.490000e+03     2.021467e-20
 9.650000e+03     2.029926e-20
 9.810000e+03     2.040440e-20
 9.970000e+03     2.050360e-20
 1.050000e+04     2.068519e-20
 1.150000e+04     2.045622e-20
 1.250000e+04     2.015384e-20
 1.350000e+04     1.986869e-20
 1.450000e+04     1.979277e-20
 1.550000e+04     2.005151e-20
 1.650000e+04     2.026859e-20
 1.750000e+04     2.004280e-20
 1.850000e+04     1.939583e-20
 1.950000e+04     1.856815e-20
 2.050000e+04     1.774040e-20
 2.150000e+04     1.699575e-20
 2.250000e+04     1.638039e-20
 2.350000e+04     1.590711e-20
 2.450000e+04     1.557145e-20
 2.550000e+04     1.536529e-20
 2.650000e+04     1.528593e-20
 2.750000e+04     1.533513e-20
 2.850000e+04     1.551324e-20
 2.950000e+04     1.581987e-20
 3.050000e+04     1.625495e-20
 3.150000e+04     1.681808e-20
 3.250000e+04     1.744032e-20
 3.350000e+04     1.793513e-20
 3.450000e+04     1.848558e-20
 3.550000e+04     1.900964e-20
 3.650000e+04     1.951907e-20
 3.750000e+04     2.000784e-20
 3.850000e+04     2.047786e-20
 3.950000e+04     2.092424e-20
 4.050000e+04     2.135515e-20
 4.150000e+04     2.179318e-20
 4.250000e+04     2.224567e-20
 4.350000e+04     2.270376e-20
 4.450000e+04     2.316026e-20
 4.550000e+04     2.361423e-20
 4.650000e+04     2.406652e-20
 4.750000e+04     2.451760e-20
 4.850000e+04     2.496743e-20
 4.950000e+04     2.541607e-20
 5.050000e+04     2.586356e-20
 5.150000e+04     2.630990e-20
 5.250000e+04     2.675516e-20
 5.350000e+04     2.719079e-20
 5.450000e+04     2.746310e-20
 5.550000e+04     2.784232e-20
 5.650000e+04     2.831329e-20
 5.750000e+04     2.894681e-20
 5.850000e+04     2.937353e-20
 5.950000e+04     2.970604e-20
 6.050000e+04     3.048827e-20
 6.150000e+04     3.325287e-20
 6.250000e+04     3.861025e-20
 6.350000e+04     4.179354e-20
 6.450000e+04     4.204005e-20
 6.550000e+04     4.181528e-20
 6.650010e+04     4.210794e-20
 6.750010e+04     4.221868e-20
 6.850010e+04     4.243201e-20
 6.950010e+04     4.305206e-20
 7.020000e+04     4.386922e-20
 7.100000e+04     4.447959e-20
 7.180000e+04     4.525730e-20
 7.260000e+04     4.622585e-20
 7.340000e+04     4.771988e-20
 7.420000e+04     4.996088e-20
 7.500000e+04     5.297533e-20
 7.580000e+04     5.697638e-20
 7.660000e+04     6.140016e-20
 7.740000e+04     6.529086e-20
 7.820000e+04     6.852052e-20
 7.900000e+04     7.118462e-20
 7.980000e+04     7.323418e-20
 8.060000e+04     7.446736e-20
 8.140000e+04     7.493921e-20
 8.220000e+04     7.475602e-20
 8.300000e+04     7.455543e-20
 8.380000e+04     7.446274e-20
 8.460000e+04     7.438454e-20
 8.540000e+04     7.439206e-20
 8.620000e+04     7.479977e-20
 8.700000e+04     7.525571e-20
 8.780000e+04     7.500778e-20
 8.860000e+04     7.390592e-20
 8.940000e+04     7.225015e-20
 9.020000e+04     7.018379e-20
 9.100000e+04     6.787753e-20
 9.180000e+04     6.542096e-20
 9.260000e+04     6.283760e-20
 9.340000e+04     6.013451e-20
 9.420000e+04     5.739666e-20
 9.500000e+04     5.471291e-20
 9.580000e+04     5.212617e-20
 9.660000e+04     4.990689e-20
 9.740000e+04     4.789911e-20
 9.820000e+04     4.579776e-20
 9.900000e+04     4.386154e-20
 9.980000e+04     4.213110e-20
 1.006000e+05     4.050666e-20
 1.020000e+05     3.828250e-20
 1.040000e+05     3.580355e-20
 1.060000e+05     3.441963e-20
 1.080000e+05     3.356953e-20
 1.100000e+05     3.393726e-20
 1.120000e+05     3.953359e-20
 1.140000e+05     5.055260e-20
 1.160000e+05     5.511425e-20
 1.180000e+05     5.483591e-20
 1.200000e+05     5.656688e-20
 1.220000e+05     5.791573e-20
 1.240000e+05     5.968276e-20
 1.260000e+05     6.238724e-20
 1.280000e+05     6.705113e-20
 1.300000e+05     6.973204e-20
 1.320000e+05     6.855268e-20
 1.340000e+05     6.575003e-20
 1.360000e+05     6.516778e-20
 1.380000e+05     6.238164e-20
 1.400000e+05     5.911679e-20
 1.420000e+05     5.698675e-20
 1.440000e+05     5.470281e-20
 1.460000e+05     5.253818e-20
 1.480000e+05     5.057712e-20
 1.500000e+05     4.885841e-20
 1.520000e+05     4.734961e-20
 1.540000e+05     4.584432e-20
 1.560000e+05     4.569144e-20
 1.580000e+05     4.501822e-20
 1.600000e+05     4.420440e-20
 1.620000e+05     4.397016e-20
 1.640000e+05     4.491844e-20
 1.660000e+05     4.716478e-20
 1.680000e+05     4.873602e-20
 1.700000e+05     5.139238e-20
 1.720000e+05     5.423485e-20
 1.740000e+05     5.616861e-20
 1.760000e+05     5.761250e-20
 1.780000e+05     5.799244e-20
 1.800000e+05     5.851283e-20
 1.820000e+05     5.865547e-20
 1.840000e+05     5.880325e-20
 1.860000e+05     5.909767e-20
 1.880000e+05     6.153019e-20
 1.900000e+05     6.237436e-20
 1.920000e+05     6.253612e-20
 1.940000e+05     6.243888e-20
 1.960000e+05     6.196831e-20
 1.980000e+05     6.203302e-20
 2.000000e+05     6.199879e-20
 2.020000e+05     6.175328e-20
 2.040000e+05     6.146385e-20
 2.060000e+05     6.141533e-20
 2.080000e+05     6.123168e-20
 2.100000e+05     6.095693e-20
 2.120000e+05     6.080940e-20
 2.140000e+05     6.084172e-20
 2.160000e+05     6.092406e-20
 2.180000e+05     6.112861e-20
 2.200000e+05     6.150687e-20
 2.220000e+05     6.202519e-20
 2.240000e+05     6.264622e-20
 2.260000e+05     6.334611e-20
 2.280000e+05     6.405761e-20
 2.300000e+05     6.471423e-20
 2.320000e+05     6.538457e-20
 2.340000e+05     6.616254e-20
 2.360000e+05     6.701717e-20
 2.380000e+05     6.790584e-20
 2.400000e+05     6.884103e-20
 2.420000e+05     6.984681e-20
 2.440000e+05     7.091226e-20
 2.460000e+05     7.201813e-20
 2.480000e+05     7.315021e-20
 2.500000e+05     7.429928e-20
 2.520000e+05     7.546465e-20
 2.540000e+05     7.664620e-20
 2.560000e+05     7.788115e-20
 2.580000e+05     7.936267e-20
 2.600000e+05     8.116189e-20
 2.620000e+05     8.272894e-20
 2.640000e+05     8.400560e-20
 2.660000e+05     8.525035e-20
 2.680000e+05     8.649282e-20
 2.700000e+05     8.775869e-20
 2.720000e+05     8.904254e-20
 2.740000e+05     9.037801e-20
 2.760000e+05     9.174472e-20
 2.780000e+05     9.310564e-20
 2.800000e+05     9.452055e-20
 2.820000e+05     9.618850e-20
 2.840000e+05     9.790801e-20
 2.860000e+05     9.942236e-20
 2.880000e+05     1.008806e-19
 2.900000e+05     1.023595e-19
 2.920000e+05     1.038977e-19
 2.940000e+05     1.054266e-19
 2.960000e+05     1.070360e-19
 2.980000e+05     1.086621e-19
 3.000000e+05     1.102960e-19
 3.020000e+05     1.119766e-19
 3.040000e+05     1.137018e-19
 3.060000e+05     1.154528e-19
 3.080000e+05     1.172580e-19
 3.100000e+05     1.190917e-19
 3.120000e+05     1.209682e-19
 3.140000e+05     1.229043e-19
 3.160000e+05     1.248690e-19
 3.180000e+05     1.268618e-19
 3.200000e+05     1.289089e-19
 3.220000e+05     1.310686e-19
 3.240000e+05     1.333438e-19
 3.260000e+05     1.357365e-19
 3.280000e+05     1.382388e-19
 3.300000e+05     1.408497e-19
 3.320000e+05     1.436814e-19
 3.340000e+05     1.479156e-19
 3.360000e+05     1.541109e-19
 3.380000e+05     1.584298e-19
 3.400000e+05     1.609579e-19
 3.420000e+05     1.632392e-19
 3.440000e+05     1.655293e-19
 3.460000e+05     1.684622e-19
 3.480000e+05     1.740748e-19
 3.500000e+05     1.814844e-19
 3.520000e+05     1.855561e-19
 3.540000e+05     1.878601e-19
 3.560000e+05     1.900253e-19
 3.580000e+05     1.923166e-19
 3.600000e+05     1.948194e-19
 3.620000e+05     1.962374e-19
 3.640000e+05     1.983267e-19
 3.660000e+05     2.010820e-19
 3.680000e+05     2.036472e-19
 3.700000e+05     2.062097e-19
 3.720000e+05     2.088100e-19
 3.740000e+05     2.115917e-19
 3.760000e+05     2.136255e-19
 3.780000e+05     2.162581e-19
 3.800000e+05     2.192641e-19
 3.820000e+05     2.221121e-19
 3.840000e+05     2.248563e-19
 3.860000e+05     2.275385e-19
 3.880000e+05     2.302127e-19
 3.900000e+05     2.328454e-19
 3.920000e+05     2.357253e-19
 4.320000e+05     2.940323e-19
 4.760000e+05     3.629972e-19
 5.250000e+05     4.439614e-19
 5.790000e+05     5.341305e-19
 6.390000e+05     6.343091e-19
 7.040000e+05     7.433658e-19
 7.760000e+05     9.250282e-19
 8.560000e+05     1.206778e-18
 9.430000e+05     1.580193e-18
 1.040000e+06     2.022594e-18
 1.147000e+06     2.482041e-18
 1.264000e+06     2.894932e-18
 1.394000e+06     3.209142e-18
 1.537000e+06     3.381026e-18
 1.694000e+06     3.395897e-18
 1.868000e+06     3.262393e-18
 2.059000e+06     3.009734e-18
 2.270000e+06     2.675451e-18
 2.503000e+06     2.299982e-18
 2.760000e+06     1.918638e-18
 3.043000e+06     1.558673e-18
 3.354000e+06     1.236908e-18
 3.698000e+06     9.601714e-19
