## EBL from Khaire & Srianand 2018; Q14 Model with alpha=-1.4 
## Column1:wavelength (Angstrom);  Column2:EBL specific intensity J_nu (erg/s/cm^2/Hz/Sr)
## ===========================================================================================
 1.000000e-08     2.363685e-37
 1.122019e-08     3.446570e-37
 1.258925e-08     4.998375e-37
 1.412538e-08     7.178571e-37
 1.584893e-08     1.017867e-36
 1.778279e-08     1.422355e-36
 1.995263e-08     1.957323e-36
 2.238721e-08     2.652579e-36
 2.511887e-08     3.542215e-36
 2.818382e-08     4.665159e-36
 3.162278e-08     6.065946e-36
 3.548135e-08     7.795499e-36
 3.981071e-08     9.912154e-36
 4.466837e-08     1.248286e-35
 5.011870e-08     1.558442e-35
 5.623413e-08     1.930530e-35
 6.309576e-08     2.374728e-35
 7.079456e-08     2.902774e-35
 7.943284e-08     3.528235e-35
 8.912505e-08     4.266768e-35
 1.000000e-07     5.136513e-35
 1.122019e-07     6.158443e-35
 1.258925e-07     7.356833e-35
 1.412538e-07     8.759848e-35
 1.584892e-07     1.040005e-34
 1.778279e-07     1.231526e-34
 1.995263e-07     1.454924e-34
 2.238721e-07     1.715271e-34
 2.511887e-07     2.018449e-34
 2.818382e-07     2.371272e-34
 3.162278e-07     2.781644e-34
 3.548136e-07     3.258721e-34
 3.981071e-07     3.813106e-34
 4.466837e-07     4.457111e-34
 5.011870e-07     5.204977e-34
 5.623413e-07     6.073238e-34
 6.309576e-07     7.081034e-34
 7.079456e-07     8.250539e-34
 7.943284e-07     9.607489e-34
 8.912505e-07     1.118165e-33
 1.000000e-06     1.300759e-33
 1.122019e-06     1.512532e-33
 1.258925e-06     1.758118e-33
 1.412538e-06     2.042896e-33
 1.584893e-06     2.373087e-33
 1.778279e-06     2.755911e-33
 1.995263e-06     3.199734e-33
 2.238721e-06     3.714240e-33
 2.511887e-06     4.310664e-33
 2.818382e-06     5.002012e-33
 3.162278e-06     5.803373e-33
 3.548136e-06     6.732218e-33
 3.981071e-06     7.808779e-33
 4.466837e-06     9.056543e-33
 5.011870e-06     1.050267e-32
 5.623413e-06     1.217872e-32
 6.309576e-06     1.412116e-32
 7.079456e-06     1.637228e-32
 7.943284e-06     1.898116e-32
 8.912505e-06     2.200454e-32
 1.000000e-05     2.550833e-32
 1.122019e-05     2.956878e-32
 1.258925e-05     3.427421e-32
 1.412538e-05     3.972718e-32
 1.584893e-05     4.604627e-32
 1.778279e-05     5.336906e-32
 1.995263e-05     6.185499e-32
 2.238721e-05     7.168860e-32
 2.511887e-05     8.308406e-32
 2.818382e-05     9.628918e-32
 3.162278e-05     1.115915e-31
 3.548135e-05     1.293240e-31
 3.981071e-05     1.498722e-31
 4.466837e-05     1.736837e-31
 5.011870e-05     2.012762e-31
 5.623413e-05     2.332506e-31
 6.309577e-05     2.703024e-31
 7.079457e-05     3.132371e-31
 7.943284e-05     3.629899e-31
 8.912505e-05     4.206423e-31
 1.000000e-04     4.874497e-31
 1.122018e-04     5.648647e-31
 1.258926e-04     6.545652e-31
 1.412538e-04     7.581014e-31
 1.584893e-04     8.774820e-31
 1.778279e-04     1.015150e-30
 1.995262e-04     1.174047e-30
 2.238722e-04     1.357721e-30
 2.511887e-04     1.570423e-30
 2.818383e-04     1.817209e-30
 3.162278e-04     2.104047e-30
 3.548134e-04     2.437959e-30
 3.981073e-04     2.827204e-30
 4.466837e-04     3.281503e-30
 5.011873e-04     3.812313e-30
 5.623413e-04     4.433160e-30
 6.309572e-04     5.160034e-30
 7.079460e-04     6.011864e-30
 7.943284e-04     7.011055e-30
 8.912510e-04     8.184181e-30
 1.000000e-03     9.562773e-30
 1.122018e-03     1.118424e-29
 1.258926e-03     1.309307e-29
 1.412538e-03     1.534206e-29
 1.584893e-03     1.799407e-29
 1.778279e-03     2.112387e-29
 1.995262e-03     2.482048e-29
 2.238722e-03     2.918993e-29
 2.511887e-03     3.435854e-29
 2.818383e-03     4.047697e-29
 3.162278e-03     4.772491e-29
 3.548133e-03     5.631668e-29
 3.981073e-03     6.650829e-29
 4.466837e-03     7.860522e-29
 5.011873e-03     9.297270e-29
 5.623413e-03     1.100474e-28
 6.309573e-03     1.303528e-28
 7.079460e-03     1.545183e-28
 7.943284e-03     1.833052e-28
 8.912510e-03     2.176428e-28
 1.000000e-02     2.586786e-28
 1.122019e-02     3.078457e-28
 1.258925e-02     3.669514e-28
 1.412538e-02     4.382934e-28
 1.584894e-02     5.247884e-28
 1.778279e-02     6.301275e-28
 1.995263e-02     7.589418e-28
 2.238721e-02     9.169644e-28
 2.511887e-02     1.111209e-27
 2.818385e-02     1.350134e-27
 3.162277e-02     1.643805e-27
 3.548136e-02     2.004091e-27
 3.981071e-02     2.444821e-27
 4.466837e-02     2.982056e-27
 5.011876e-02     3.634321e-27
 5.623413e-02     4.422976e-27
 6.309576e-02     5.372694e-27
 7.079456e-02     6.511968e-27
 7.943284e-02     7.873922e-27
 8.912515e-02     9.497117e-27
 1.000000e-01     1.142669e-26
 1.122019e-01     1.371586e-26
 1.258925e-01     1.641785e-26
 1.412538e-01     1.956498e-26
 1.584894e-01     2.317411e-26
 1.778279e-01     2.724533e-26
 1.995263e-01     3.176317e-26
 2.238721e-01     3.669998e-26
 2.511887e-01     4.202119e-26
 2.818385e-01     4.768986e-26
 3.162278e-01     5.366709e-26
 3.548135e-01     5.982755e-26
 3.981071e-01     6.610376e-26
 4.466837e-01     7.245424e-26
 5.011876e-01     7.886328e-26
 5.623413e-01     8.534391e-26
 6.309576e-01     9.193387e-26
 7.079456e-01     9.868697e-26
 7.943284e-01     1.056661e-25
 8.912515e-01     1.129386e-25
 1.000000e+00     1.205753e-25
 1.122019e+00     1.286526e-25
 1.258925e+00     1.372550e-25
 1.412538e+00     1.464796e-25
 1.584894e+00     1.564388e-25
 1.778279e+00     1.672651e-25
 1.995263e+00     1.791152e-25
 2.238721e+00     1.921738e-25
 2.511887e+00     2.066599e-25
 2.818385e+00     2.228320e-25
 3.162278e+00     2.409957e-25
 3.548136e+00     2.615126e-25
 3.981071e+00     2.848095e-25
 4.466837e+00     3.113922e-25
 5.011876e+00     3.418578e-25
 5.623413e+00     3.769125e-25
 6.309576e+00     4.173854e-25
 7.079456e+00     4.640146e-25
 7.943284e+00     5.178719e-25
 8.912516e+00     5.803011e-25
 1.000000e+01     6.529431e-25
 1.122019e+01     7.377787e-25
 1.258925e+01     8.371450e-25
 1.412538e+01     9.537557e-25
 1.584894e+01     1.090698e-24
 1.778279e+01     1.251437e-24
 1.995263e+01     1.439784e-24
 2.238721e+01     1.659816e-24
 2.511887e+01     1.915724e-24
 2.818385e+01     2.211520e-24
 3.162278e+01     2.550588e-24
 3.548135e+01     2.935072e-24
 3.981071e+01     3.365125e-24
 4.466837e+01     3.838266e-24
 5.011876e+01     4.348772e-24
 5.623413e+01     4.886358e-24
 6.309576e+01     5.424798e-24
 7.079456e+01     6.021351e-24
 7.943284e+01     6.632313e-24
 8.912515e+01     7.333581e-24
 1.000000e+02     8.134553e-24
 1.120000e+02     9.032451e-24
 1.250000e+02     1.001245e-23
 1.400000e+02     1.114236e-23
 1.550000e+02     1.227923e-23
 1.650000e+02     1.302587e-23
 1.750000e+02     1.374501e-23
 1.850000e+02     1.444302e-23
 1.900000e+02     1.478023e-23
 1.950000e+02     1.511647e-23
 2.000000e+02     1.544438e-23
 2.050000e+02     1.578218e-23
 2.100000e+02     1.615374e-23
 2.150000e+02     1.660353e-23
 2.180000e+02     1.694776e-23
 2.210000e+02     1.738133e-23
 2.240000e+02     1.795292e-23
 2.260000e+02     1.846210e-23
 2.270000e+02     1.874646e-23
 2.275000e+02     1.889936e-23
 2.278400e+02     1.901193e-23
 2.380000e+02     2.090989e-23
 2.500000e+02     2.345825e-23
 2.700000e+02     2.761276e-23
 2.900000e+02     3.181448e-23
 3.035000e+02     3.488487e-23
 3.037800e+02     4.262839e-23
 3.045000e+02     4.281450e-23
 3.060000e+02     4.321452e-23
 3.080000e+02     4.374313e-23
 3.100000e+02     4.427727e-23
 3.120000e+02     4.480316e-23
 3.150000e+02     4.559487e-23
 3.200000e+02     4.690216e-23
 3.250000e+02     4.822330e-23
 3.300000e+02     4.965070e-23
 3.400000e+02     5.216630e-23
 3.600000e+02     5.721929e-23
 3.800000e+02     6.182772e-23
 4.050000e+02     6.766810e-23
 4.250000e+02     7.205024e-23
 4.500000e+02     7.703073e-23
 4.650000e+02     7.988549e-23
 4.750000e+02     8.158652e-23
 4.820000e+02     8.276098e-23
 4.870000e+02     8.357687e-23
 4.910000e+02     8.423227e-23
 4.950000e+02     8.495096e-23
 4.980000e+02     8.551815e-23
 5.000000e+02     8.589100e-23
 5.020000e+02     8.625528e-23
 5.039800e+02     8.659548e-23
 5.100000e+02     8.779053e-23
 5.250000e+02     9.023690e-23
 5.600000e+02     9.633188e-23
 6.000000e+02     1.027538e-22
 6.500000e+02     1.117651e-22
 7.000000e+02     1.218027e-22
 7.500000e+02     1.323499e-22
 8.000000e+02     1.441001e-22
 8.300000e+02     1.518394e-22
 8.600000e+02     1.597867e-22
 8.800000e+02     1.658562e-22
 8.900000e+02     1.689461e-22
 8.960000e+02     1.708248e-22
 9.000000e+02     1.720877e-22
 9.030000e+02     1.730403e-22
 9.060000e+02     1.739979e-22
 9.090000e+02     1.749603e-22
 9.117800e+02     1.762957e-22
 9.300000e+02     2.451946e-22
 9.500000e+02     2.642275e-22
 9.750000e+02     3.100100e-22
 9.900000e+02     3.599688e-22
 1.005000e+03     3.983552e-22
 1.025000e+03     4.656443e-22
 1.045000e+03     5.374532e-22
 1.065000e+03     6.143885e-22
 1.085000e+03     7.085241e-22
 1.105000e+03     8.197256e-22
 1.125000e+03     9.316538e-22
 1.145000e+03     1.034282e-21
 1.165000e+03     1.162429e-21
 1.185000e+03     1.282172e-21
 1.205000e+03     1.409145e-21
 1.215600e+03     1.465451e-21
 1.215670e+03     1.490978e-21
 1.216000e+03     1.492690e-21
 1.218000e+03     1.502508e-21
 1.221000e+03     1.516788e-21
 1.225000e+03     1.534600e-21
 1.230000e+03     1.558578e-21
 1.240000e+03     1.615770e-21
 1.250000e+03     1.681260e-21
 1.265000e+03     1.800317e-21
 1.285000e+03     1.956762e-21
 1.305000e+03     2.132569e-21
 1.325000e+03     2.300219e-21
 1.345000e+03     2.476885e-21
 1.365000e+03     2.655740e-21
 1.385000e+03     2.841432e-21
 1.405000e+03     3.024570e-21
 1.425000e+03     3.211334e-21
 1.442000e+03     3.371171e-21
 1.455000e+03     3.499172e-21
 1.475000e+03     3.699688e-21
 1.517000e+03     4.109742e-21
 1.595000e+03     4.857339e-21
 1.672000e+03     5.628011e-21
 1.745000e+03     6.346387e-21
 1.825000e+03     7.146264e-21
 1.905000e+03     7.904423e-21
 1.984000e+03     8.619476e-21
 2.065000e+03     9.309200e-21
 2.135000e+03     9.844548e-21
 2.215000e+03     1.042806e-20
 2.295000e+03     1.099262e-20
 2.375000e+03     1.156671e-20
 2.455000e+03     1.213875e-20
 2.525000e+03     1.264698e-20
 2.605000e+03     1.322515e-20
 2.685000e+03     1.386806e-20
 2.765000e+03     1.448418e-20
 2.845000e+03     1.504503e-20
 2.950000e+03     1.585261e-20
 3.110000e+03     1.712677e-20
 3.270000e+03     1.837462e-20
 3.430000e+03     1.963456e-20
 3.590000e+03     2.086615e-20
 3.730000e+03     2.198506e-20
 3.890000e+03     2.385718e-20
 4.050000e+03     2.576179e-20
 4.210000e+03     2.871896e-20
 4.370000e+03     3.138623e-20
 4.530000e+03     3.431116e-20
 4.690000e+03     3.731136e-20
 4.850000e+03     4.026047e-20
 5.010000e+03     4.301231e-20
 5.170000e+03     4.585582e-20
 5.330000e+03     4.860345e-20
 5.490000e+03     5.147166e-20
 5.650000e+03     5.424805e-20
 5.810000e+03     5.715659e-20
 5.970000e+03     5.980548e-20
 6.130000e+03     6.253011e-20
 6.290000e+03     6.510236e-20
 6.450000e+03     6.759181e-20
 6.610000e+03     7.004531e-20
 6.770000e+03     7.242813e-20
 6.930000e+03     7.474940e-20
 7.090000e+03     7.697009e-20
 7.250000e+03     7.911202e-20
 7.410000e+03     8.118682e-20
 7.570000e+03     8.321774e-20
 7.730000e+03     8.522697e-20
 7.890000e+03     8.718988e-20
 8.050000e+03     8.904642e-20
 8.210000e+03     9.085939e-20
 8.370000e+03     9.263626e-20
 8.530000e+03     9.431206e-20
 8.690000e+03     9.594732e-20
 8.850000e+03     9.760514e-20
 9.010000e+03     9.918331e-20
 9.170000e+03     1.007335e-19
 9.330000e+03     1.022887e-19
 9.490000e+03     1.037848e-19
 9.650000e+03     1.053090e-19
 9.810000e+03     1.067314e-19
 9.970000e+03     1.081273e-19
 1.050000e+04     1.124907e-19
 1.150000e+04     1.189062e-19
 1.250000e+04     1.242764e-19
 1.350000e+04     1.285730e-19
 1.450000e+04     1.322662e-19
 1.550000e+04     1.356743e-19
 1.650000e+04     1.386464e-19
 1.750000e+04     1.406160e-19
 1.850000e+04     1.413739e-19
 1.950000e+04     1.410552e-19
 2.050000e+04     1.399511e-19
 2.150000e+04     1.383991e-19
 2.250000e+04     1.360482e-19
 2.350000e+04     1.334560e-19
 2.450000e+04     1.301850e-19
 2.550000e+04     1.270447e-19
 2.650000e+04     1.238211e-19
 2.750000e+04     1.207026e-19
 2.850000e+04     1.178056e-19
 2.950000e+04     1.151039e-19
 3.050000e+04     1.126195e-19
 3.150000e+04     1.103935e-19
 3.250000e+04     1.084432e-19
 3.350000e+04     1.067606e-19
 3.450000e+04     1.053345e-19
 3.550000e+04     1.041957e-19
 3.650000e+04     1.033674e-19
 3.750000e+04     1.025305e-19
 3.850000e+04     1.018501e-19
 3.950000e+04     1.013829e-19
 4.050000e+04     1.009816e-19
 4.150000e+04     1.007694e-19
 4.250000e+04     1.006863e-19
 4.350000e+04     1.006588e-19
 4.450000e+04     1.006877e-19
 4.550000e+04     1.007908e-19
 4.650000e+04     1.009352e-19
 4.750000e+04     1.011109e-19
 4.850000e+04     1.013519e-19
 4.950000e+04     1.016805e-19
 5.050000e+04     1.020866e-19
 5.150000e+04     1.025244e-19
 5.250000e+04     1.029495e-19
 5.350000e+04     1.023087e-19
 5.450000e+04     1.012581e-19
 5.550000e+04     1.006239e-19
 5.650000e+04     9.997078e-20
 5.750000e+04     9.974448e-20
 5.850000e+04     9.961781e-20
 5.950000e+04     1.002569e-19
 6.050000e+04     1.025666e-19
 6.150000e+04     1.094388e-19
 6.250000e+04     1.214995e-19
 6.350000e+04     1.297428e-19
 6.450000e+04     1.342837e-19
 6.550000e+04     1.374513e-19
 6.650010e+04     1.407391e-19
 6.750010e+04     1.455931e-19
 6.850010e+04     1.503689e-19
 6.950010e+04     1.555796e-19
 7.020000e+04     1.598277e-19
 7.100000e+04     1.648314e-19
 7.180000e+04     1.704179e-19
 7.260000e+04     1.770270e-19
 7.340000e+04     1.847101e-19
 7.420000e+04     1.939664e-19
 7.500000e+04     2.061098e-19
 7.580000e+04     2.208363e-19
 7.660000e+04     2.368461e-19
 7.740000e+04     2.518338e-19
 7.820000e+04     2.656094e-19
 7.900000e+04     2.782569e-19
 7.980000e+04     2.889803e-19
 8.060000e+04     2.973511e-19
 8.140000e+04     3.041941e-19
 8.220000e+04     3.092501e-19
 8.300000e+04     3.135023e-19
 8.380000e+04     3.176757e-19
 8.460000e+04     3.217558e-19
 8.540000e+04     3.258015e-19
 8.620000e+04     3.303400e-19
 8.700000e+04     3.345476e-19
 8.780000e+04     3.368310e-19
 8.860000e+04     3.372381e-19
 8.940000e+04     3.364053e-19
 9.020000e+04     3.347879e-19
 9.100000e+04     3.326453e-19
 9.180000e+04     3.297377e-19
 9.260000e+04     3.266202e-19
 9.340000e+04     3.235796e-19
 9.420000e+04     3.206608e-19
 9.500000e+04     3.178098e-19
 9.580000e+04     3.150417e-19
 9.660000e+04     3.129828e-19
 9.740000e+04     3.109256e-19
 9.820000e+04     3.081797e-19
 9.900000e+04     3.053729e-19
 9.980000e+04     3.026975e-19
 1.006000e+05     3.001283e-19
 1.020000e+05     2.958176e-19
 1.040000e+05     2.904436e-19
 1.060000e+05     2.877039e-19
 1.080000e+05     2.866851e-19
 1.100000e+05     2.876987e-19
 1.120000e+05     2.989287e-19
 1.140000e+05     3.207660e-19
 1.160000e+05     3.300737e-19
 1.180000e+05     3.354302e-19
 1.200000e+05     3.366800e-19
 1.220000e+05     3.419976e-19
 1.240000e+05     3.496087e-19
 1.260000e+05     3.574618e-19
 1.280000e+05     3.692263e-19
 1.300000e+05     3.777738e-19
 1.320000e+05     3.788139e-19
 1.340000e+05     3.803042e-19
 1.360000e+05     3.800386e-19
 1.380000e+05     3.807709e-19
 1.400000e+05     3.811948e-19
 1.420000e+05     3.826005e-19
 1.440000e+05     3.805691e-19
 1.460000e+05     3.807265e-19
 1.480000e+05     3.811877e-19
 1.500000e+05     3.814873e-19
 1.520000e+05     3.805879e-19
 1.540000e+05     3.820185e-19
 1.560000e+05     3.867058e-19
 1.580000e+05     3.898896e-19
 1.600000e+05     3.921277e-19
 1.620000e+05     3.961251e-19
 1.640000e+05     4.031183e-19
 1.660000e+05     4.109282e-19
 1.680000e+05     4.191014e-19
 1.700000e+05     4.288897e-19
 1.720000e+05     4.400619e-19
 1.740000e+05     4.491082e-19
 1.760000e+05     4.566608e-19
 1.780000e+05     4.633204e-19
 1.800000e+05     4.691704e-19
 1.820000e+05     4.751059e-19
 1.840000e+05     4.803438e-19
 1.860000e+05     4.863647e-19
 1.880000e+05     4.968787e-19
 1.900000e+05     5.043411e-19
 1.920000e+05     5.109419e-19
 1.940000e+05     5.169074e-19
 1.960000e+05     5.232886e-19
 1.980000e+05     5.300265e-19
 2.000000e+05     5.364709e-19
 2.020000e+05     5.437552e-19
 2.040000e+05     5.510583e-19
 2.060000e+05     5.586972e-19
 2.080000e+05     5.670406e-19
 2.100000e+05     5.753352e-19
 2.120000e+05     5.838216e-19
 2.140000e+05     5.927657e-19
 2.160000e+05     6.021104e-19
 2.180000e+05     6.119892e-19
 2.200000e+05     6.218778e-19
 2.220000e+05     6.318740e-19
 2.240000e+05     6.422633e-19
 2.260000e+05     6.531407e-19
 2.280000e+05     6.644654e-19
 2.300000e+05     6.759019e-19
 2.320000e+05     6.874248e-19
 2.340000e+05     6.994014e-19
 2.360000e+05     7.118248e-19
 2.380000e+05     7.245620e-19
 2.400000e+05     7.375433e-19
 2.420000e+05     7.506398e-19
 2.440000e+05     7.640755e-19
 2.460000e+05     7.781138e-19
 2.480000e+05     7.924820e-19
 2.500000e+05     8.071096e-19
 2.520000e+05     8.220056e-19
 2.540000e+05     8.371932e-19
 2.560000e+05     8.528598e-19
 2.580000e+05     8.693828e-19
 2.600000e+05     8.867535e-19
 2.620000e+05     9.038829e-19
 2.640000e+05     9.208076e-19
 2.660000e+05     9.380571e-19
 2.680000e+05     9.555699e-19
 2.700000e+05     9.734308e-19
 2.720000e+05     9.917381e-19
 2.740000e+05     1.010265e-18
 2.760000e+05     1.029084e-18
 2.780000e+05     1.048421e-18
 2.800000e+05     1.068265e-18
 2.820000e+05     1.088929e-18
 2.840000e+05     1.109842e-18
 2.860000e+05     1.130576e-18
 2.880000e+05     1.151599e-18
 2.900000e+05     1.172903e-18
 2.920000e+05     1.194640e-18
 2.940000e+05     1.216844e-18
 2.960000e+05     1.239390e-18
 2.980000e+05     1.262235e-18
 3.000000e+05     1.285329e-18
 3.020000e+05     1.308986e-18
 3.040000e+05     1.333081e-18
 3.060000e+05     1.357494e-18
 3.080000e+05     1.382255e-18
 3.100000e+05     1.407482e-18
 3.120000e+05     1.433072e-18
 3.140000e+05     1.459136e-18
 3.160000e+05     1.485666e-18
 3.180000e+05     1.512672e-18
 3.200000e+05     1.540089e-18
 3.220000e+05     1.568087e-18
 3.240000e+05     1.596726e-18
 3.260000e+05     1.625927e-18
 3.280000e+05     1.655891e-18
 3.300000e+05     1.686687e-18
 3.320000e+05     1.718252e-18
 3.340000e+05     1.752932e-18
 3.360000e+05     1.792105e-18
 3.380000e+05     1.827627e-18
 3.400000e+05     1.859856e-18
 3.420000e+05     1.892288e-18
 3.440000e+05     1.925246e-18
 3.460000e+05     1.959708e-18
 3.480000e+05     2.000681e-18
 3.500000e+05     2.044862e-18
 3.520000e+05     2.082215e-18
 3.540000e+05     2.116240e-18
 3.560000e+05     2.150344e-18
 3.580000e+05     2.185270e-18
 3.600000e+05     2.220535e-18
 3.620000e+05     2.256303e-18
 3.640000e+05     2.291943e-18
 3.660000e+05     2.328103e-18
 3.680000e+05     2.364871e-18
 3.700000e+05     2.400492e-18
 3.720000e+05     2.437940e-18
 3.740000e+05     2.475952e-18
 3.760000e+05     2.513382e-18
 3.780000e+05     2.551667e-18
 3.800000e+05     2.590514e-18
 3.820000e+05     2.629206e-18
 3.840000e+05     2.668063e-18
 3.860000e+05     2.707631e-18
 3.880000e+05     2.747545e-18
 3.900000e+05     2.786673e-18
 3.920000e+05     2.826812e-18
 4.320000e+05     3.669377e-18
 4.760000e+05     4.688867e-18
 5.250000e+05     5.922396e-18
 5.790000e+05     7.387160e-18
 6.390000e+05     9.121006e-18
 7.040000e+05     1.107417e-17
 7.760000e+05     1.328813e-17
 8.560000e+05     1.564954e-17
 9.430000e+05     1.791937e-17
 1.040000e+06     1.993241e-17
 1.147000e+06     2.146816e-17
 1.264000e+06     2.237290e-17
 1.394000e+06     2.257978e-17
 1.537000e+06     2.209148e-17
 1.694000e+06     2.099326e-17
 1.868000e+06     1.940283e-17
 2.059000e+06     1.749363e-17
 2.270000e+06     1.541241e-17
 2.503000e+06     1.330124e-17
 2.760000e+06     1.127362e-17
 3.043000e+06     9.410505e-18
 3.354000e+06     7.758319e-18
 3.698000e+06     6.324719e-18
