## EBL from Khaire & Srianand 2018; Q14 Model with alpha=-1.4 
## Column1:wavelength (Angstrom);  Column2:EBL specific intensity J_nu (erg/s/cm^2/Hz/Sr)
## ===========================================================================================
 1.000000e-08     1.682503e-38
 1.122019e-08     2.445974e-38
 1.258925e-08     3.495078e-38
 1.412538e-08     4.892155e-38
 1.584893e-08     6.712703e-38
 1.778279e-08     9.045021e-38
 1.995263e-08     1.199066e-37
 2.238721e-08     1.566569e-37
 2.511887e-08     2.020275e-37
 2.818382e-08     2.575339e-37
 3.162278e-08     3.249132e-37
 3.548135e-08     4.061571e-37
 3.981071e-08     5.035561e-37
 4.466837e-08     6.197503e-37
 5.011870e-08     7.577819e-37
 5.623413e-08     9.211704e-37
 6.309576e-08     1.113981e-36
 7.079456e-08     1.340915e-36
 7.943284e-08     1.607426e-36
 8.912505e-08     1.919817e-36
 1.000000e-07     2.285403e-36
 1.122019e-07     2.712654e-36
 1.258925e-07     3.211379e-36
 1.412538e-07     3.792970e-36
 1.584892e-07     4.470596e-36
 1.778279e-07     5.259561e-36
 1.995263e-07     6.177575e-36
 2.238721e-07     7.245162e-36
 2.511887e-07     8.486136e-36
 2.818382e-07     9.928065e-36
 3.162278e-07     1.160294e-35
 3.548136e-07     1.354781e-35
 3.981071e-07     1.580558e-35
 4.466837e-07     1.842606e-35
 5.011870e-07     2.146688e-35
 5.623413e-07     2.499493e-35
 6.309576e-07     2.908764e-35
 7.079456e-07     3.383472e-35
 7.943284e-07     3.934029e-35
 8.912505e-07     4.572475e-35
 1.000000e-06     5.312793e-35
 1.122019e-06     6.171165e-35
 1.258925e-06     7.166335e-35
 1.412538e-06     8.320064e-35
 1.584893e-06     9.657517e-35
 1.778279e-06     1.120790e-34
 1.995263e-06     1.300503e-34
 2.238721e-06     1.508810e-34
 2.511887e-06     1.750254e-34
 2.818382e-06     2.030095e-34
 3.162278e-06     2.354436e-34
 3.548136e-06     2.730344e-34
 3.981071e-06     3.166002e-34
 4.466837e-06     3.670909e-34
 5.011870e-06     4.256052e-34
 5.623413e-06     4.934185e-34
 6.309576e-06     5.720070e-34
 7.079456e-06     6.630807e-34
 7.943284e-06     7.686244e-34
 8.912505e-06     8.909332e-34
 1.000000e-05     1.032672e-33
 1.122019e-05     1.196926e-33
 1.258925e-05     1.387266e-33
 1.412538e-05     1.607840e-33
 1.584893e-05     1.863445e-33
 1.778279e-05     2.159644e-33
 1.995263e-05     2.502887e-33
 2.238721e-05     2.900637e-33
 2.511887e-05     3.361553e-33
 2.818382e-05     3.895662e-33
 3.162278e-05     4.514590e-33
 3.548135e-05     5.231802e-33
 3.981071e-05     6.062899e-33
 4.466837e-05     7.025975e-33
 5.011870e-05     8.141968e-33
 5.623413e-05     9.435182e-33
 6.309577e-05     1.093375e-32
 7.079457e-05     1.267024e-32
 7.943284e-05     1.468248e-32
 8.912505e-05     1.701422e-32
 1.000000e-04     1.971622e-32
 1.122018e-04     2.284722e-32
 1.258926e-04     2.646988e-32
 1.412538e-04     3.057873e-32
 1.584893e-04     3.531115e-32
 1.778279e-04     4.079536e-32
 1.995262e-04     4.716786e-32
 2.238722e-04     5.458358e-32
 2.511887e-04     6.322281e-32
 2.818383e-04     7.329760e-32
 3.162278e-04     8.505796e-32
 3.548134e-04     9.879908e-32
 3.981073e-04     1.148700e-31
 4.466837e-04     1.336835e-31
 5.011873e-04     1.557284e-31
 5.623413e-04     1.815838e-31
 6.309572e-04     2.119361e-31
 7.079460e-04     2.476002e-31
 7.943284e-04     2.895422e-31
 8.912510e-04     3.389109e-31
 1.000000e-03     3.970711e-31
 1.122018e-03     4.656457e-31
 1.258926e-03     5.465668e-31
 1.412538e-03     6.421320e-31
 1.584893e-03     7.550798e-31
 1.778279e-03     8.886736e-31
 1.995262e-03     1.046803e-30
 2.238722e-03     1.234109e-30
 2.511887e-03     1.456123e-30
 2.818383e-03     1.719455e-30
 3.162278e-03     2.031993e-30
 3.548133e-03     2.403163e-30
 3.981073e-03     2.844227e-30
 4.466837e-03     3.368648e-30
 5.011873e-03     3.992549e-30
 5.623413e-03     4.735279e-30
 6.309573e-03     5.620206e-30
 7.079460e-03     6.675810e-30
 7.943284e-03     7.937299e-30
 8.912510e-03     9.448949e-30
 1.000000e-02     1.126728e-29
 1.122019e-02     1.346511e-29
 1.258925e-02     1.613631e-29
 1.412538e-02     1.940109e-29
 1.584894e-02     2.341089e-29
 1.778279e-02     2.835326e-29
 1.995263e-02     3.445609e-29
 2.238721e-02     4.199076e-29
 2.511887e-02     5.127594e-29
 2.818385e-02     6.268067e-29
 3.162277e-02     7.662888e-29
 3.548136e-02     9.360629e-29
 3.981071e-02     1.141673e-28
 4.466837e-02     1.389487e-28
 5.011876e-02     1.686827e-28
 5.623413e-02     2.042173e-28
 6.309576e-02     2.465408e-28
 7.079456e-02     2.968091e-28
 7.943284e-02     3.563843e-28
 8.912515e-02     4.268728e-28
 1.000000e-01     5.101773e-28
 1.122019e-01     6.086348e-28
 1.258925e-01     7.219530e-28
 1.412538e-01     8.468473e-28
 1.584894e-01     9.814539e-28
 1.778279e-01     1.124553e-27
 1.995263e-01     1.275219e-27
 2.238721e-01     1.432682e-27
 2.511887e-01     1.596293e-27
 2.818385e-01     1.765522e-27
 3.162278e-01     1.937798e-27
 3.548135e-01     2.095612e-27
 3.981071e-01     2.252195e-27
 4.466837e-01     2.412941e-27
 5.011876e-01     2.580110e-27
 5.623413e-01     2.754947e-27
 6.309576e-01     2.938462e-27
 7.079456e-01     3.132034e-27
 7.943284e-01     3.337233e-27
 8.912515e-01     3.555979e-27
 1.000000e+00     3.790593e-27
 1.122019e+00     4.043858e-27
 1.258925e+00     4.319054e-27
 1.412538e+00     4.620042e-27
 1.584894e+00     4.951308e-27
 1.778279e+00     5.318045e-27
 1.995263e+00     5.726204e-27
 2.238721e+00     6.182499e-27
 2.511887e+00     6.694380e-27
 2.818385e+00     7.269851e-27
 3.162278e+00     7.917103e-27
 3.548136e+00     8.643832e-27
 3.981071e+00     9.455988e-27
 4.466837e+00     1.035589e-26
 5.011876e+00     1.133928e-26
 5.623413e+00     1.239147e-26
 6.309576e+00     1.347772e-26
 7.079456e+00     1.435225e-26
 7.943284e+00     1.524254e-26
 8.912516e+00     1.609631e-26
 1.000000e+01     1.672020e-26
 1.122019e+01     1.700916e-26
 1.258925e+01     1.683081e-26
 1.412538e+01     1.630593e-26
 1.584894e+01     1.535609e-26
 1.778279e+01     1.415767e-26
 1.995263e+01     1.276085e-26
 2.238721e+01     1.127942e-26
 2.511887e+01     9.801829e-27
 2.818385e+01     8.403962e-27
 3.162278e+01     7.129489e-27
 3.548135e+01     6.005794e-27
 3.981071e+01     5.039860e-27
 4.466837e+01     4.221595e-27
 5.011876e+01     3.537560e-27
 5.623413e+01     2.968454e-27
 6.309576e+01     2.496005e-27
 7.079456e+01     2.106190e-27
 7.943284e+01     1.784325e-27
 8.912515e+01     1.519001e-27
 1.000000e+02     1.299740e-27
 1.120000e+02     1.121975e-27
 1.250000e+02     9.792408e-28
 1.400000e+02     8.576699e-28
 1.550000e+02     7.672460e-28
 1.650000e+02     7.191679e-28
 1.750000e+02     6.790791e-28
 1.850000e+02     6.469795e-28
 1.900000e+02     6.362879e-28
 1.950000e+02     6.335873e-28
 2.000000e+02     6.475923e-28
 2.050000e+02     6.968233e-28
 2.100000e+02     8.188809e-28
 2.150000e+02     1.087250e-27
 2.180000e+02     1.372136e-27
 2.210000e+02     1.804762e-27
 2.240000e+02     2.452331e-27
 2.260000e+02     3.048770e-27
 2.270000e+02     3.409432e-27
 2.275000e+02     3.607614e-27
 2.278400e+02     3.749677e-27
 2.380000e+02     1.085009e-23
 2.500000e+02     2.221181e-23
 2.700000e+02     2.897353e-23
 2.900000e+02     3.224128e-23
 3.035000e+02     3.401402e-23
 3.037800e+02     3.928425e-23
 3.045000e+02     3.877513e-23
 3.060000e+02     3.801750e-23
 3.080000e+02     3.723824e-23
 3.100000e+02     3.674966e-23
 3.120000e+02     3.647012e-23
 3.150000e+02     3.628592e-23
 3.200000e+02     3.642830e-23
 3.250000e+02     3.683598e-23
 3.300000e+02     3.735888e-23
 3.400000e+02     3.853866e-23
 3.600000e+02     4.095357e-23
 3.800000e+02     4.334783e-23
 4.050000e+02     4.628922e-23
 4.250000e+02     4.861468e-23
 4.500000e+02     5.147920e-23
 4.650000e+02     5.318282e-23
 4.750000e+02     5.431618e-23
 4.820000e+02     5.510121e-23
 4.870000e+02     5.566466e-23
 4.910000e+02     5.611196e-23
 4.950000e+02     5.655955e-23
 4.980000e+02     5.688462e-23
 5.000000e+02     5.710755e-23
 5.020000e+02     5.732905e-23
 5.039800e+02     5.754907e-23
 5.100000e+02     6.463407e-23
 5.250000e+02     7.231694e-23
 5.600000e+02     7.916462e-23
 6.000000e+02     8.476069e-23
 6.500000e+02     9.198725e-23
 7.000000e+02     1.007053e-22
 7.500000e+02     1.121577e-22
 8.000000e+02     1.277095e-22
 8.300000e+02     1.396675e-22
 8.600000e+02     1.541944e-22
 8.800000e+02     1.654382e-22
 8.900000e+02     1.715725e-22
 8.960000e+02     1.754349e-22
 9.000000e+02     1.780757e-22
 9.030000e+02     1.800951e-22
 9.060000e+02     1.821746e-22
 9.090000e+02     1.842525e-22
 9.117800e+02     1.862308e-22
 9.300000e+02     7.071611e-22
 9.500000e+02     1.771936e-21
 9.750000e+02     3.463135e-21
 9.900000e+02     4.355764e-21
 1.005000e+03     5.417264e-21
 1.025000e+03     6.937922e-21
 1.045000e+03     8.250017e-21
 1.065000e+03     1.005523e-20
 1.085000e+03     1.181038e-20
 1.105000e+03     1.347962e-20
 1.125000e+03     1.519767e-20
 1.145000e+03     1.669262e-20
 1.165000e+03     1.833362e-20
 1.185000e+03     1.971458e-20
 1.205000e+03     2.112515e-20
 1.215600e+03     2.167683e-20
 1.215670e+03     2.384252e-20
 1.216000e+03     2.385776e-20
 1.218000e+03     2.395023e-20
 1.221000e+03     2.408846e-20
 1.225000e+03     2.424212e-20
 1.230000e+03     2.442643e-20
 1.240000e+03     2.503936e-20
 1.250000e+03     2.573534e-20
 1.265000e+03     2.677306e-20
 1.285000e+03     2.810759e-20
 1.305000e+03     2.963251e-20
 1.325000e+03     3.077769e-20
 1.345000e+03     3.207993e-20
 1.365000e+03     3.345928e-20
 1.385000e+03     3.461790e-20
 1.405000e+03     3.573053e-20
 1.425000e+03     3.666179e-20
 1.442000e+03     3.751362e-20
 1.455000e+03     3.810274e-20
 1.475000e+03     3.917719e-20
 1.517000e+03     4.058793e-20
 1.595000e+03     4.310246e-20
 1.672000e+03     4.500108e-20
 1.745000e+03     4.657073e-20
 1.825000e+03     4.797682e-20
 1.905000e+03     4.897157e-20
 1.984000e+03     4.964358e-20
 2.065000e+03     5.005999e-20
 2.135000e+03     5.024934e-20
 2.215000e+03     5.021837e-20
 2.295000e+03     5.020183e-20
 2.375000e+03     5.000563e-20
 2.455000e+03     4.991819e-20
 2.525000e+03     4.964622e-20
 2.605000e+03     4.955716e-20
 2.685000e+03     4.965049e-20
 2.765000e+03     4.955124e-20
 2.845000e+03     4.932947e-20
 2.950000e+03     4.896162e-20
 3.110000e+03     4.888761e-20
 3.270000e+03     4.869533e-20
 3.430000e+03     4.843546e-20
 3.590000e+03     4.816272e-20
 3.730000e+03     4.839694e-20
 3.890000e+03     5.066911e-20
 4.050000e+03     5.380937e-20
 4.210000e+03     5.742177e-20
 4.370000e+03     6.026741e-20
 4.530000e+03     6.296246e-20
 4.690000e+03     6.544334e-20
 4.850000e+03     6.695346e-20
 5.010000e+03     6.850019e-20
 5.170000e+03     6.974805e-20
 5.330000e+03     7.088412e-20
 5.490000e+03     7.186582e-20
 5.650000e+03     7.277939e-20
 5.810000e+03     7.368170e-20
 5.970000e+03     7.429657e-20
 6.130000e+03     7.490197e-20
 6.290000e+03     7.543326e-20
 6.450000e+03     7.586777e-20
 6.610000e+03     7.624418e-20
 6.770000e+03     7.665963e-20
 6.930000e+03     7.699167e-20
 7.090000e+03     7.724935e-20
 7.250000e+03     7.748546e-20
 7.410000e+03     7.772753e-20
 7.570000e+03     7.803485e-20
 7.730000e+03     7.837343e-20
 7.890000e+03     7.867352e-20
 8.050000e+03     7.892546e-20
 8.210000e+03     7.918428e-20
 8.370000e+03     7.944007e-20
 8.530000e+03     7.967480e-20
 8.690000e+03     7.993683e-20
 8.850000e+03     8.034324e-20
 9.010000e+03     8.069944e-20
 9.170000e+03     8.111756e-20
 9.330000e+03     8.154073e-20
 9.490000e+03     8.198918e-20
 9.650000e+03     8.231532e-20
 9.810000e+03     8.267815e-20
 9.970000e+03     8.308007e-20
 1.050000e+04     8.386137e-20
 1.150000e+04     8.430700e-20
 1.250000e+04     8.429371e-20
 1.350000e+04     8.415935e-20
 1.450000e+04     8.420745e-20
 1.550000e+04     8.494277e-20
 1.650000e+04     8.518525e-20
 1.750000e+04     8.433645e-20
 1.850000e+04     8.253026e-20
 1.950000e+04     8.038076e-20
 2.050000e+04     7.848063e-20
 2.150000e+04     7.673755e-20
 2.250000e+04     7.519941e-20
 2.350000e+04     7.409138e-20
 2.450000e+04     7.347766e-20
 2.550000e+04     7.325472e-20
 2.650000e+04     7.343935e-20
 2.750000e+04     7.404578e-20
 2.850000e+04     7.508561e-20
 2.950000e+04     7.656834e-20
 3.050000e+04     7.850048e-20
 3.150000e+04     8.086382e-20
 3.250000e+04     8.354111e-20
 3.350000e+04     8.626397e-20
 3.450000e+04     8.866114e-20
 3.550000e+04     9.083529e-20
 3.650000e+04     9.289282e-20
 3.750000e+04     9.511044e-20
 3.850000e+04     9.743288e-20
 3.950000e+04     9.982084e-20
 4.050000e+04     1.022423e-19
 4.150000e+04     1.046897e-19
 4.250000e+04     1.071570e-19
 4.350000e+04     1.096424e-19
 4.450000e+04     1.121463e-19
 4.550000e+04     1.146687e-19
 4.650000e+04     1.172076e-19
 4.750000e+04     1.197625e-19
 4.850000e+04     1.223331e-19
 4.950000e+04     1.249189e-19
 5.050000e+04     1.275180e-19
 5.150000e+04     1.301284e-19
 5.250000e+04     1.327490e-19
 5.350000e+04     1.333853e-19
 5.450000e+04     1.335782e-19
 5.550000e+04     1.343913e-19
 5.650000e+04     1.355959e-19
 5.750000e+04     1.376125e-19
 5.850000e+04     1.403745e-19
 5.950000e+04     1.455604e-19
 6.050000e+04     1.527830e-19
 6.150000e+04     1.619355e-19
 6.250000e+04     1.770517e-19
 6.350000e+04     1.903166e-19
 6.450000e+04     1.993908e-19
 6.550000e+04     2.048801e-19
 6.650010e+04     2.093549e-19
 6.750010e+04     2.138297e-19
 6.850010e+04     2.171653e-19
 6.950010e+04     2.221847e-19
 7.020000e+04     2.269056e-19
 7.100000e+04     2.319163e-19
 7.180000e+04     2.379278e-19
 7.260000e+04     2.454050e-19
 7.340000e+04     2.546710e-19
 7.420000e+04     2.660611e-19
 7.500000e+04     2.796504e-19
 7.580000e+04     2.954264e-19
 7.660000e+04     3.122347e-19
 7.740000e+04     3.268099e-19
 7.820000e+04     3.397172e-19
 7.900000e+04     3.506738e-19
 7.980000e+04     3.587879e-19
 8.060000e+04     3.651938e-19
 8.140000e+04     3.697214e-19
 8.220000e+04     3.724825e-19
 8.300000e+04     3.747375e-19
 8.380000e+04     3.766222e-19
 8.460000e+04     3.775722e-19
 8.540000e+04     3.776848e-19
 8.620000e+04     3.774735e-19
 8.700000e+04     3.764788e-19
 8.780000e+04     3.743280e-19
 8.860000e+04     3.708478e-19
 8.940000e+04     3.661723e-19
 9.020000e+04     3.608883e-19
 9.100000e+04     3.547250e-19
 9.180000e+04     3.476506e-19
 9.260000e+04     3.403971e-19
 9.340000e+04     3.332896e-19
 9.420000e+04     3.267323e-19
 9.500000e+04     3.204364e-19
 9.580000e+04     3.141606e-19
 9.660000e+04     3.086692e-19
 9.740000e+04     3.037179e-19
 9.820000e+04     2.983224e-19
 9.900000e+04     2.931652e-19
 9.980000e+04     2.882034e-19
 1.006000e+05     2.840007e-19
 1.020000e+05     2.771500e-19
 1.040000e+05     2.690160e-19
 1.060000e+05     2.675451e-19
 1.080000e+05     2.685756e-19
 1.100000e+05     2.665476e-19
 1.120000e+05     2.772187e-19
 1.140000e+05     3.053624e-19
 1.160000e+05     3.237790e-19
 1.180000e+05     3.330289e-19
 1.200000e+05     3.394010e-19
 1.220000e+05     3.479094e-19
 1.240000e+05     3.523302e-19
 1.260000e+05     3.571266e-19
 1.280000e+05     3.690982e-19
 1.300000e+05     3.803333e-19
 1.320000e+05     3.801850e-19
 1.340000e+05     3.770296e-19
 1.360000e+05     3.724773e-19
 1.380000e+05     3.685753e-19
 1.400000e+05     3.611500e-19
 1.420000e+05     3.576914e-19
 1.440000e+05     3.513902e-19
 1.460000e+05     3.469557e-19
 1.480000e+05     3.407301e-19
 1.500000e+05     3.371302e-19
 1.520000e+05     3.322551e-19
 1.540000e+05     3.282300e-19
 1.560000e+05     3.278500e-19
 1.580000e+05     3.291114e-19
 1.600000e+05     3.302108e-19
 1.620000e+05     3.312786e-19
 1.640000e+05     3.351997e-19
 1.660000e+05     3.430610e-19
 1.680000e+05     3.482843e-19
 1.700000e+05     3.551705e-19
 1.720000e+05     3.641298e-19
 1.740000e+05     3.710147e-19
 1.760000e+05     3.771879e-19
 1.780000e+05     3.812048e-19
 1.800000e+05     3.847735e-19
 1.820000e+05     3.895491e-19
 1.840000e+05     3.909148e-19
 1.860000e+05     3.917271e-19
 1.880000e+05     3.984343e-19
 1.900000e+05     4.016455e-19
 1.920000e+05     4.037634e-19
 1.940000e+05     4.061157e-19
 1.960000e+05     4.079396e-19
 1.980000e+05     4.097282e-19
 2.000000e+05     4.117859e-19
 2.020000e+05     4.140510e-19
 2.040000e+05     4.164767e-19
 2.060000e+05     4.194127e-19
 2.080000e+05     4.222445e-19
 2.100000e+05     4.256346e-19
 2.120000e+05     4.300608e-19
 2.140000e+05     4.341367e-19
 2.160000e+05     4.385168e-19
 2.180000e+05     4.438762e-19
 2.200000e+05     4.490397e-19
 2.220000e+05     4.539592e-19
 2.240000e+05     4.597557e-19
 2.260000e+05     4.658903e-19
 2.280000e+05     4.718349e-19
 2.300000e+05     4.780091e-19
 2.320000e+05     4.847056e-19
 2.340000e+05     4.916449e-19
 2.360000e+05     4.985026e-19
 2.380000e+05     5.054906e-19
 2.400000e+05     5.129722e-19
 2.420000e+05     5.206212e-19
 2.440000e+05     5.281742e-19
 2.460000e+05     5.359569e-19
 2.480000e+05     5.439931e-19
 2.500000e+05     5.523515e-19
 2.520000e+05     5.609987e-19
 2.540000e+05     5.699750e-19
 2.560000e+05     5.788420e-19
 2.580000e+05     5.880974e-19
 2.600000e+05     5.982906e-19
 2.620000e+05     6.081208e-19
 2.640000e+05     6.177061e-19
 2.660000e+05     6.274929e-19
 2.680000e+05     6.373826e-19
 2.700000e+05     6.475034e-19
 2.720000e+05     6.577462e-19
 2.740000e+05     6.680941e-19
 2.760000e+05     6.786690e-19
 2.780000e+05     6.896471e-19
 2.800000e+05     7.005646e-19
 2.820000e+05     7.117238e-19
 2.840000e+05     7.230807e-19
 2.860000e+05     7.340614e-19
 2.880000e+05     7.451964e-19
 2.900000e+05     7.567997e-19
 2.920000e+05     7.682738e-19
 2.940000e+05     7.800339e-19
 2.960000e+05     7.922215e-19
 2.980000e+05     8.044165e-19
 3.000000e+05     8.165082e-19
 3.020000e+05     8.292088e-19
 3.040000e+05     8.419549e-19
 3.060000e+05     8.544975e-19
 3.080000e+05     8.673710e-19
 3.100000e+05     8.806978e-19
 3.120000e+05     8.938934e-19
 3.140000e+05     9.074892e-19
 3.160000e+05     9.220813e-19
 3.180000e+05     9.366625e-19
 3.200000e+05     9.516411e-19
 3.220000e+05     9.671720e-19
 3.240000e+05     9.827563e-19
 3.260000e+05     9.990776e-19
 3.280000e+05     1.018143e-18
 3.300000e+05     1.039456e-18
 3.320000e+05     1.058869e-18
 3.340000e+05     1.079131e-18
 3.360000e+05     1.104310e-18
 3.380000e+05     1.126887e-18
 3.400000e+05     1.143181e-18
 3.420000e+05     1.162514e-18
 3.440000e+05     1.185403e-18
 3.460000e+05     1.204108e-18
 3.480000e+05     1.227589e-18
 3.500000e+05     1.255405e-18
 3.520000e+05     1.275705e-18
 3.540000e+05     1.289921e-18
 3.560000e+05     1.306253e-18
 3.580000e+05     1.323542e-18
 3.600000e+05     1.339698e-18
 3.620000e+05     1.358503e-18
 3.640000e+05     1.375672e-18
 3.660000e+05     1.390957e-18
 3.680000e+05     1.407806e-18
 3.700000e+05     1.424498e-18
 3.720000e+05     1.441096e-18
 3.740000e+05     1.458784e-18
 3.760000e+05     1.476109e-18
 3.780000e+05     1.492905e-18
 3.800000e+05     1.509898e-18
 3.820000e+05     1.527198e-18
 3.840000e+05     1.544572e-18
 3.860000e+05     1.561901e-18
 3.880000e+05     1.579413e-18
 3.900000e+05     1.597085e-18
 3.920000e+05     1.614929e-18
 4.320000e+05     1.998482e-18
 4.760000e+05     2.448597e-18
 5.250000e+05     2.969961e-18
 5.790000e+05     3.556104e-18
 6.390000e+05     4.213128e-18
 7.040000e+05     4.923874e-18
 7.760000e+05     5.839046e-18
 8.560000e+05     6.992334e-18
 9.430000e+05     8.360085e-18
 1.040000e+06     9.927046e-18
 1.147000e+06     1.158418e-17
 1.264000e+06     1.317555e-17
 1.394000e+06     1.455354e-17
 1.537000e+06     1.554269e-17
 1.694000e+06     1.602813e-17
 1.868000e+06     1.596300e-17
 2.059000e+06     1.536860e-17
 2.270000e+06     1.432331e-17
 2.503000e+06     1.294583e-17
 2.760000e+06     1.137073e-17
 3.043000e+06     9.727781e-18
 3.354000e+06     8.124850e-18
 3.698000e+06     6.630292e-18
