## EBL from Khaire & Srianand 2018; Q14 Model with alpha=-1.4 
## Column1:wavelength (Angstrom);  Column2:EBL specific intensity J_nu (erg/s/cm^2/Hz/Sr)
## ===========================================================================================
 1.000000e-08     6.408523e-38
 1.122019e-08     9.352601e-38
 1.258925e-08     1.360503e-37
 1.412538e-08     1.966739e-37
 1.584893e-08     2.817901e-37
 1.778279e-08     3.993165e-37
 1.995263e-08     5.587936e-37
 2.238721e-08     7.714618e-37
 2.511887e-08     1.050364e-36
 2.818382e-08     1.410477e-36
 3.162278e-08     1.868935e-36
 3.548135e-08     2.445305e-36
 3.981071e-08     3.161949e-36
 4.466837e-08     4.044475e-36
 5.011870e-08     5.122197e-36
 5.623413e-08     6.428794e-36
 6.309576e-08     8.002930e-36
 7.079456e-08     9.889084e-36
 7.943284e-08     1.213856e-35
 8.912505e-08     1.481047e-35
 1.000000e-07     1.797315e-35
 1.122019e-07     2.170551e-35
 1.258925e-07     2.609884e-35
 1.412538e-07     3.125893e-35
 1.584892e-07     3.730800e-35
 1.778279e-07     4.438802e-35
 1.995263e-07     5.266313e-35
 2.238721e-07     6.232359e-35
 2.511887e-07     7.359009e-35
 2.818382e-07     8.671808e-35
 3.162278e-07     1.020041e-34
 3.548136e-07     1.197914e-34
 3.981071e-07     1.404776e-34
 4.466837e-07     1.645247e-34
 5.011870e-07     1.924666e-34
 5.623413e-07     2.249236e-34
 6.309576e-07     2.626134e-34
 7.079456e-07     3.063679e-34
 7.943284e-07     3.571525e-34
 8.912505e-07     4.160838e-34
 1.000000e-06     4.844584e-34
 1.122019e-06     5.637768e-34
 1.258925e-06     6.557775e-34
 1.412538e-06     7.624789e-34
 1.584893e-06     8.862149e-34
 1.778279e-06     1.029694e-33
 1.995263e-06     1.196054e-33
 2.238721e-06     1.388927e-33
 2.511887e-06     1.612530e-33
 2.818382e-06     1.871742e-33
 3.162278e-06     2.172222e-33
 3.548136e-06     2.520525e-33
 3.981071e-06     2.924244e-33
 4.466837e-06     3.392187e-33
 5.011870e-06     3.934548e-33
 5.623413e-06     4.563155e-33
 6.309576e-06     5.291702e-33
 7.079456e-06     6.136054e-33
 7.943284e-06     7.114618e-33
 8.912505e-06     8.248689e-33
 1.000000e-05     9.562988e-33
 1.122019e-05     1.108612e-32
 1.258925e-05     1.285122e-32
 1.412538e-05     1.489677e-32
 1.584893e-05     1.726726e-32
 1.778279e-05     2.001430e-32
 1.995263e-05     2.319771e-32
 2.238721e-05     2.688672e-32
 2.511887e-05     3.116168e-32
 2.818382e-05     3.611556e-32
 3.162278e-05     4.185627e-32
 3.548135e-05     4.850866e-32
 3.981071e-05     5.621746e-32
 4.466837e-05     6.515054e-32
 5.011870e-05     7.550211e-32
 5.623413e-05     8.749760e-32
 6.309577e-05     1.013980e-31
 7.079457e-05     1.175055e-31
 7.943284e-05     1.361710e-31
 8.912505e-05     1.578002e-31
 1.000000e-04     1.828640e-31
 1.122018e-04     2.119075e-31
 1.258926e-04     2.455622e-31
 1.412538e-04     2.845000e-31
 1.584893e-04     3.295071e-31
 1.778279e-04     3.814984e-31
 1.995262e-04     4.415367e-31
 2.238722e-04     5.108754e-31
 2.511887e-04     5.910077e-31
 2.818383e-04     6.837233e-31
 3.162278e-04     7.911631e-31
 3.548134e-04     9.158739e-31
 3.981073e-04     1.060871e-30
 4.466837e-04     1.229710e-30
 5.011873e-04     1.426583e-30
 5.623413e-04     1.656426e-30
 6.309572e-04     1.925062e-30
 7.079460e-04     2.239368e-30
 7.943284e-04     2.607469e-30
 8.912510e-04     3.038991e-30
 1.000000e-03     3.545332e-30
 1.122018e-03     4.140009e-30
 1.258926e-03     4.839070e-30
 1.412538e-03     5.661547e-30
 1.584893e-03     6.630071e-30
 1.778279e-03     7.771550e-30
 1.995262e-03     9.117979e-30
 2.238722e-03     1.070744e-29
 2.511887e-03     1.258528e-29
 2.818383e-03     1.480549e-29
 3.162278e-03     1.743249e-29
 3.548133e-03     2.054303e-29
 3.981073e-03     2.422872e-29
 4.466837e-03     2.859880e-29
 5.011873e-03     3.378379e-29
 5.623413e-03     3.993958e-29
 6.309573e-03     4.725268e-29
 7.079460e-03     5.594662e-29
 7.943284e-03     6.629013e-29
 8.912510e-03     7.860828e-29
 1.000000e-02     9.329715e-29
 1.122019e-02     1.108440e-28
 1.258925e-02     1.318535e-28
 1.412538e-02     1.570840e-28
 1.584894e-02     1.874906e-28
 1.778279e-02     2.242793e-28
 1.995263e-02     2.689709e-28
 2.238721e-02     3.234691e-28
 2.511887e-02     3.901401e-28
 2.818385e-02     4.718899e-28
 3.162277e-02     5.722479e-28
 3.548136e-02     6.954571e-28
 3.981071e-02     8.465524e-28
 4.466837e-02     1.031468e-27
 5.011876e-02     1.257131e-27
 5.623413e-02     1.531584e-27
 6.309576e-02     1.864151e-27
 7.079456e-02     2.265597e-27
 7.943284e-02     2.748388e-27
 8.912515e-02     3.326965e-27
 1.000000e-01     4.018115e-27
 1.122019e-01     4.841469e-27
 1.258925e-01     5.818746e-27
 1.412538e-01     6.970202e-27
 1.584894e-01     8.314176e-27
 1.778279e-01     9.865280e-27
 1.995263e-01     1.163252e-26
 2.238721e-01     1.361798e-26
 2.511887e-01     1.581683e-26
 2.818385e-01     1.821831e-26
 3.162278e-01     2.080725e-26
 3.548135e-01     2.355298e-26
 3.981071e-01     2.642697e-26
 4.466837e-01     2.940168e-26
 5.011876e-01     3.245133e-26
 5.623413e-01     3.555606e-26
 6.309576e-01     3.870599e-26
 7.079456e-01     4.190318e-26
 7.943284e-01     4.516147e-26
 8.912515e-01     4.850388e-26
 1.000000e+00     5.195968e-26
 1.122019e+00     5.556216e-26
 1.258925e+00     5.934746e-26
 1.412538e+00     6.335507e-26
 1.584894e+00     6.762874e-26
 1.778279e+00     7.221826e-26
 1.995263e+00     7.718145e-26
 2.238721e+00     8.258582e-26
 2.511887e+00     8.851111e-26
 2.818385e+00     9.505131e-26
 3.162278e+00     1.023175e-25
 3.548136e+00     1.104413e-25
 3.981071e+00     1.195777e-25
 4.466837e+00     1.299104e-25
 5.011876e+00     1.416562e-25
 5.623413e+00     1.550714e-25
 6.309576e+00     1.704586e-25
 7.079456e+00     1.881379e-25
 7.943284e+00     2.085032e-25
 8.912516e+00     2.320260e-25
 1.000000e+01     2.592686e-25
 1.122019e+01     2.909083e-25
 1.258925e+01     3.277590e-25
 1.412538e+01     3.707938e-25
 1.584894e+01     4.211553e-25
 1.778279e+01     4.801625e-25
 1.995263e+01     5.493072e-25
 2.238721e+01     6.302334e-25
 2.511887e+01     7.247041e-25
 2.818385e+01     8.345251e-25
 3.162278e+01     9.614198e-25
 3.548135e+01     1.106839e-24
 3.981071e+01     1.271680e-24
 4.466837e+01     1.455965e-24
 5.011876e+01     1.658516e-24
 5.623413e+01     1.876768e-24
 6.309576e+01     2.106723e-24
 7.079456e+01     2.343274e-24
 7.943284e+01     2.582711e-24
 8.912515e+01     2.830473e-24
 1.000000e+02     3.095529e-24
 1.120000e+02     3.387737e-24
 1.250000e+02     3.708484e-24
 1.400000e+02     4.074686e-24
 1.550000e+02     4.432616e-24
 1.650000e+02     4.665473e-24
 1.750000e+02     4.893324e-24
 1.850000e+02     5.113340e-24
 1.900000e+02     5.220911e-24
 1.950000e+02     5.328880e-24
 2.000000e+02     5.435588e-24
 2.050000e+02     5.543599e-24
 2.100000e+02     5.658446e-24
 2.150000e+02     5.789541e-24
 2.180000e+02     5.888537e-24
 2.210000e+02     6.007488e-24
 2.240000e+02     6.165377e-24
 2.260000e+02     6.295449e-24
 2.270000e+02     6.374477e-24
 2.275000e+02     6.417209e-24
 2.278400e+02     6.447474e-24
 2.380000e+02     6.988259e-24
 2.500000e+02     7.697050e-24
 2.700000e+02     8.890246e-24
 2.900000e+02     1.019673e-23
 3.035000e+02     1.112640e-23
 3.037800e+02     1.285070e-23
 3.045000e+02     1.291248e-23
 3.060000e+02     1.304433e-23
 3.080000e+02     1.321972e-23
 3.100000e+02     1.339465e-23
 3.120000e+02     1.356805e-23
 3.150000e+02     1.383330e-23
 3.200000e+02     1.427374e-23
 3.250000e+02     1.471435e-23
 3.300000e+02     1.516106e-23
 3.400000e+02     1.609790e-23
 3.600000e+02     1.790417e-23
 3.800000e+02     1.972002e-23
 4.050000e+02     2.202778e-23
 4.250000e+02     2.384807e-23
 4.500000e+02     2.609148e-23
 4.650000e+02     2.741527e-23
 4.750000e+02     2.823938e-23
 4.820000e+02     2.881213e-23
 4.870000e+02     2.921529e-23
 4.910000e+02     2.953314e-23
 4.950000e+02     2.985131e-23
 4.980000e+02     3.008623e-23
 5.000000e+02     3.024492e-23
 5.020000e+02     3.040930e-23
 5.039800e+02     3.057532e-23
 5.100000e+02     3.112031e-23
 5.250000e+02     3.237267e-23
 5.600000e+02     3.515794e-23
 6.000000e+02     3.798920e-23
 6.500000e+02     4.131335e-23
 7.000000e+02     4.461985e-23
 7.500000e+02     4.791686e-23
 8.000000e+02     5.134430e-23
 8.300000e+02     5.367401e-23
 8.600000e+02     5.613345e-23
 8.800000e+02     5.802297e-23
 8.900000e+02     5.897324e-23
 8.960000e+02     5.955294e-23
 9.000000e+02     5.994458e-23
 9.030000e+02     6.024105e-23
 9.060000e+02     6.060712e-23
 9.090000e+02     6.090832e-23
 9.117800e+02     6.118854e-23
 9.300000e+02     7.847809e-23
 9.500000e+02     9.878692e-23
 9.750000e+02     1.275701e-22
 9.900000e+02     1.341018e-22
 1.005000e+03     1.613370e-22
 1.025000e+03     1.875931e-22
 1.045000e+03     2.214945e-22
 1.065000e+03     2.511706e-22
 1.085000e+03     2.949241e-22
 1.105000e+03     3.351960e-22
 1.125000e+03     3.817264e-22
 1.145000e+03     4.385051e-22
 1.165000e+03     4.970835e-22
 1.185000e+03     5.474556e-22
 1.205000e+03     5.992774e-22
 1.215600e+03     6.266551e-22
 1.215670e+03     6.346450e-22
 1.216000e+03     6.355274e-22
 1.218000e+03     6.407001e-22
 1.221000e+03     6.483511e-22
 1.225000e+03     6.579720e-22
 1.230000e+03     6.699324e-22
 1.240000e+03     6.936067e-22
 1.250000e+03     7.206581e-22
 1.265000e+03     7.682593e-22
 1.285000e+03     8.370483e-22
 1.305000e+03     9.117535e-22
 1.325000e+03     9.848037e-22
 1.345000e+03     1.062775e-21
 1.365000e+03     1.140384e-21
 1.385000e+03     1.219379e-21
 1.405000e+03     1.297094e-21
 1.425000e+03     1.377456e-21
 1.442000e+03     1.446426e-21
 1.455000e+03     1.502895e-21
 1.475000e+03     1.587965e-21
 1.517000e+03     1.761646e-21
 1.595000e+03     2.077052e-21
 1.672000e+03     2.397183e-21
 1.745000e+03     2.700863e-21
 1.825000e+03     3.040155e-21
 1.905000e+03     3.365570e-21
 1.984000e+03     3.683183e-21
 2.065000e+03     3.996253e-21
 2.135000e+03     4.252020e-21
 2.215000e+03     4.532577e-21
 2.295000e+03     4.810380e-21
 2.375000e+03     5.089857e-21
 2.455000e+03     5.374389e-21
 2.525000e+03     5.625594e-21
 2.605000e+03     5.919087e-21
 2.685000e+03     6.237622e-21
 2.765000e+03     6.556726e-21
 2.845000e+03     6.853259e-21
 2.950000e+03     7.280584e-21
 3.110000e+03     7.981529e-21
 3.270000e+03     8.679146e-21
 3.430000e+03     9.398738e-21
 3.590000e+03     1.011370e-20
 3.730000e+03     1.077147e-20
 3.890000e+03     1.174824e-20
 4.050000e+03     1.277207e-20
 4.210000e+03     1.416447e-20
 4.370000e+03     1.558054e-20
 4.530000e+03     1.706797e-20
 4.690000e+03     1.864469e-20
 4.850000e+03     2.023157e-20
 5.010000e+03     2.175012e-20
 5.170000e+03     2.326588e-20
 5.330000e+03     2.485509e-20
 5.490000e+03     2.641770e-20
 5.650000e+03     2.805410e-20
 5.810000e+03     2.969842e-20
 5.970000e+03     3.127784e-20
 6.130000e+03     3.288591e-20
 6.290000e+03     3.444025e-20
 6.450000e+03     3.597721e-20
 6.610000e+03     3.749466e-20
 6.770000e+03     3.899777e-20
 6.930000e+03     4.045477e-20
 7.090000e+03     4.189585e-20
 7.250000e+03     4.329110e-20
 7.410000e+03     4.465336e-20
 7.570000e+03     4.600974e-20
 7.730000e+03     4.735260e-20
 7.890000e+03     4.865270e-20
 8.050000e+03     4.993878e-20
 8.210000e+03     5.118331e-20
 8.370000e+03     5.240003e-20
 8.530000e+03     5.358438e-20
 8.690000e+03     5.474681e-20
 8.850000e+03     5.589428e-20
 9.010000e+03     5.701214e-20
 9.170000e+03     5.810632e-20
 9.330000e+03     5.920076e-20
 9.490000e+03     6.027268e-20
 9.650000e+03     6.129577e-20
 9.810000e+03     6.234510e-20
 9.970000e+03     6.333434e-20
 1.050000e+04     6.646003e-20
 1.150000e+04     7.138124e-20
 1.250000e+04     7.555846e-20
 1.350000e+04     7.902430e-20
 1.450000e+04     8.200188e-20
 1.550000e+04     8.466037e-20
 1.650000e+04     8.700109e-20
 1.750000e+04     8.873147e-20
 1.850000e+04     8.977010e-20
 1.950000e+04     9.021686e-20
 2.050000e+04     9.013716e-20
 2.150000e+04     8.961061e-20
 2.250000e+04     8.884381e-20
 2.350000e+04     8.789808e-20
 2.450000e+04     8.681542e-20
 2.550000e+04     8.565906e-20
 2.650000e+04     8.447401e-20
 2.750000e+04     8.329403e-20
 2.850000e+04     8.211532e-20
 2.950000e+04     8.100795e-20
 3.050000e+04     8.001120e-20
 3.150000e+04     7.909867e-20
 3.250000e+04     7.831076e-20
 3.350000e+04     7.769955e-20
 3.450000e+04     7.727389e-20
 3.550000e+04     7.698981e-20
 3.650000e+04     7.663447e-20
 3.750000e+04     7.633857e-20
 3.850000e+04     7.618625e-20
 3.950000e+04     7.615122e-20
 4.050000e+04     7.616302e-20
 4.150000e+04     7.625314e-20
 4.250000e+04     7.641120e-20
 4.350000e+04     7.661995e-20
 4.450000e+04     7.686796e-20
 4.550000e+04     7.719620e-20
 4.650000e+04     7.758622e-20
 4.750000e+04     7.801434e-20
 4.850000e+04     7.847163e-20
 4.950000e+04     7.897643e-20
 5.050000e+04     7.953794e-20
 5.150000e+04     8.014345e-20
 5.250000e+04     8.078552e-20
 5.350000e+04     8.120029e-20
 5.450000e+04     8.146000e-20
 5.550000e+04     8.183464e-20
 5.650000e+04     8.226287e-20
 5.750000e+04     8.283327e-20
 5.850000e+04     8.338197e-20
 5.950000e+04     8.393478e-20
 6.050000e+04     8.481595e-20
 6.150000e+04     8.728119e-20
 6.250000e+04     9.172822e-20
 6.350000e+04     9.501298e-20
 6.450000e+04     9.686662e-20
 6.550000e+04     9.854266e-20
 6.650010e+04     1.000022e-19
 6.750010e+04     1.013085e-19
 6.850010e+04     1.031023e-19
 6.950010e+04     1.050512e-19
 7.020000e+04     1.067321e-19
 7.100000e+04     1.083455e-19
 7.180000e+04     1.098568e-19
 7.260000e+04     1.115666e-19
 7.340000e+04     1.141278e-19
 7.420000e+04     1.173023e-19
 7.500000e+04     1.211219e-19
 7.580000e+04     1.258291e-19
 7.660000e+04     1.310562e-19
 7.740000e+04     1.360610e-19
 7.820000e+04     1.409647e-19
 7.900000e+04     1.459172e-19
 7.980000e+04     1.503661e-19
 8.060000e+04     1.541839e-19
 8.140000e+04     1.574402e-19
 8.220000e+04     1.601897e-19
 8.300000e+04     1.629165e-19
 8.380000e+04     1.657615e-19
 8.460000e+04     1.685926e-19
 8.540000e+04     1.714048e-19
 8.620000e+04     1.744862e-19
 8.700000e+04     1.775772e-19
 8.780000e+04     1.803829e-19
 8.860000e+04     1.827629e-19
 8.940000e+04     1.847746e-19
 9.020000e+04     1.865315e-19
 9.100000e+04     1.880330e-19
 9.180000e+04     1.894103e-19
 9.260000e+04     1.908166e-19
 9.340000e+04     1.920594e-19
 9.420000e+04     1.932872e-19
 9.500000e+04     1.945670e-19
 9.580000e+04     1.958319e-19
 9.660000e+04     1.972324e-19
 9.740000e+04     1.986205e-19
 9.820000e+04     1.998009e-19
 9.900000e+04     2.009079e-19
 9.980000e+04     2.018831e-19
 1.006000e+05     2.028123e-19
 1.020000e+05     2.041921e-19
 1.040000e+05     2.056437e-19
 1.060000e+05     2.069102e-19
 1.080000e+05     2.079854e-19
 1.100000e+05     2.089914e-19
 1.120000e+05     2.128423e-19
 1.140000e+05     2.201199e-19
 1.160000e+05     2.227367e-19
 1.180000e+05     2.234413e-19
 1.200000e+05     2.251290e-19
 1.220000e+05     2.245458e-19
 1.240000e+05     2.261637e-19
 1.260000e+05     2.291878e-19
 1.280000e+05     2.336645e-19
 1.300000e+05     2.368643e-19
 1.320000e+05     2.378622e-19
 1.340000e+05     2.393382e-19
 1.360000e+05     2.413914e-19
 1.380000e+05     2.416575e-19
 1.400000e+05     2.425826e-19
 1.420000e+05     2.444462e-19
 1.440000e+05     2.466886e-19
 1.460000e+05     2.477674e-19
 1.480000e+05     2.468354e-19
 1.500000e+05     2.475656e-19
 1.520000e+05     2.489815e-19
 1.540000e+05     2.499280e-19
 1.560000e+05     2.513384e-19
 1.580000e+05     2.518428e-19
 1.600000e+05     2.523125e-19
 1.620000e+05     2.541635e-19
 1.640000e+05     2.559984e-19
 1.660000e+05     2.581661e-19
 1.680000e+05     2.597959e-19
 1.700000e+05     2.622877e-19
 1.720000e+05     2.655034e-19
 1.740000e+05     2.680258e-19
 1.760000e+05     2.699972e-19
 1.780000e+05     2.712896e-19
 1.800000e+05     2.727338e-19
 1.820000e+05     2.743371e-19
 1.840000e+05     2.755626e-19
 1.860000e+05     2.771282e-19
 1.880000e+05     2.797930e-19
 1.900000e+05     2.818524e-19
 1.920000e+05     2.839820e-19
 1.940000e+05     2.858353e-19
 1.960000e+05     2.879744e-19
 1.980000e+05     2.897740e-19
 2.000000e+05     2.922070e-19
 2.020000e+05     2.944438e-19
 2.040000e+05     2.969550e-19
 2.060000e+05     2.996795e-19
 2.080000e+05     3.023475e-19
 2.100000e+05     3.051034e-19
 2.120000e+05     3.082017e-19
 2.140000e+05     3.115503e-19
 2.160000e+05     3.147718e-19
 2.180000e+05     3.179055e-19
 2.200000e+05     3.216424e-19
 2.220000e+05     3.253517e-19
 2.240000e+05     3.288992e-19
 2.260000e+05     3.327853e-19
 2.280000e+05     3.366228e-19
 2.300000e+05     3.404764e-19
 2.320000e+05     3.444137e-19
 2.340000e+05     3.484940e-19
 2.360000e+05     3.526722e-19
 2.380000e+05     3.569330e-19
 2.400000e+05     3.612654e-19
 2.420000e+05     3.656883e-19
 2.440000e+05     3.701649e-19
 2.460000e+05     3.746919e-19
 2.480000e+05     3.793381e-19
 2.500000e+05     3.841712e-19
 2.520000e+05     3.890693e-19
 2.540000e+05     3.940034e-19
 2.560000e+05     3.991400e-19
 2.580000e+05     4.045999e-19
 2.600000e+05     4.102942e-19
 2.620000e+05     4.159753e-19
 2.640000e+05     4.215898e-19
 2.660000e+05     4.272794e-19
 2.680000e+05     4.330887e-19
 2.700000e+05     4.390444e-19
 2.720000e+05     4.451317e-19
 2.740000e+05     4.513198e-19
 2.760000e+05     4.576015e-19
 2.780000e+05     4.639752e-19
 2.800000e+05     4.705335e-19
 2.820000e+05     4.774164e-19
 2.840000e+05     4.844842e-19
 2.860000e+05     4.914883e-19
 2.880000e+05     4.985151e-19
 2.900000e+05     5.056231e-19
 2.920000e+05     5.128543e-19
 2.940000e+05     5.202584e-19
 2.960000e+05     5.278433e-19
 2.980000e+05     5.355580e-19
 3.000000e+05     5.433302e-19
 3.020000e+05     5.511961e-19
 3.040000e+05     5.592029e-19
 3.060000e+05     5.673815e-19
 3.080000e+05     5.757015e-19
 3.100000e+05     5.841685e-19
 3.120000e+05     5.927715e-19
 3.140000e+05     6.015100e-19
 3.160000e+05     6.103720e-19
 3.180000e+05     6.193526e-19
 3.200000e+05     6.285124e-19
 3.220000e+05     6.379095e-19
 3.240000e+05     6.475274e-19
 3.260000e+05     6.573202e-19
 3.280000e+05     6.672935e-19
 3.300000e+05     6.774820e-19
 3.320000e+05     6.879332e-19
 3.340000e+05     6.994461e-19
 3.360000e+05     7.125561e-19
 3.380000e+05     7.244727e-19
 3.400000e+05     7.354057e-19
 3.420000e+05     7.462684e-19
 3.440000e+05     7.571893e-19
 3.460000e+05     7.687645e-19
 3.480000e+05     7.827006e-19
 3.500000e+05     7.980296e-19
 3.520000e+05     8.107106e-19
 3.540000e+05     8.226137e-19
 3.560000e+05     8.345869e-19
 3.580000e+05     8.466749e-19
 3.600000e+05     8.584861e-19
 3.620000e+05     8.706560e-19
 3.640000e+05     8.833399e-19
 3.660000e+05     8.959710e-19
 3.680000e+05     9.083707e-19
 3.700000e+05     9.212243e-19
 3.720000e+05     9.344031e-19
 3.740000e+05     9.479756e-19
 3.760000e+05     9.602810e-19
 3.780000e+05     9.735857e-19
 3.800000e+05     9.873506e-19
 3.820000e+05     1.001000e-18
 3.840000e+05     1.014782e-18
 3.860000e+05     1.028688e-18
 3.880000e+05     1.042595e-18
 3.900000e+05     1.056776e-18
 3.920000e+05     1.071069e-18
 4.320000e+05     1.383996e-18
 4.760000e+05     1.778949e-18
 5.250000e+05     2.266240e-18
 5.790000e+05     2.847725e-18
 6.390000e+05     3.537863e-18
 7.040000e+05     4.330454e-18
 7.760000e+05     5.292430e-18
 8.560000e+05     6.470538e-18
 9.430000e+05     7.825356e-18
 1.040000e+06     9.321054e-18
 1.147000e+06     1.082946e-17
 1.264000e+06     1.219736e-17
 1.394000e+06     1.330097e-17
 1.537000e+06     1.401230e-17
 1.694000e+06     1.426620e-17
 1.868000e+06     1.405118e-17
 2.059000e+06     1.341385e-17
 2.270000e+06     1.243421e-17
 2.503000e+06     1.121749e-17
 2.760000e+06     9.874000e-18
 3.043000e+06     8.504354e-18
 3.354000e+06     7.188046e-18
 3.698000e+06     5.970313e-18
