## EBL from Khaire & Srianand 2018; Q14 Model with alpha=-1.4 
## Column1:wavelength (Angstrom);  Column2:EBL specific intensity J_nu (erg/s/cm^2/Hz/Sr)
## ===========================================================================================
 1.000000e-08     2.187249e-37
 1.122019e-08     3.179955e-37
 1.258925e-08     4.552691e-37
 1.412538e-08     6.392062e-37
 1.584893e-08     8.800897e-37
 1.778279e-08     1.189902e-36
 1.995263e-08     1.582440e-36
 2.238721e-08     2.073501e-36
 2.511887e-08     2.681156e-36
 2.818382e-08     3.426053e-36
 3.162278e-08     4.331859e-36
 3.548135e-08     5.425697e-36
 3.981071e-08     6.738750e-36
 4.466837e-08     8.306942e-36
 5.011870e-08     1.017166e-35
 5.623413e-08     1.238075e-35
 6.309576e-08     1.498949e-35
 7.079456e-08     1.806180e-35
 7.943284e-08     2.167176e-35
 8.912505e-08     2.590506e-35
 1.000000e-07     3.086110e-35
 1.122019e-07     3.665495e-35
 1.258925e-07     4.341990e-35
 1.412538e-07     5.131073e-35
 1.584892e-07     6.050637e-35
 1.778279e-07     7.121478e-35
 1.995263e-07     8.367658e-35
 2.238721e-07     9.817061e-35
 2.511887e-07     1.150205e-34
 2.818382e-07     1.346007e-34
 3.162278e-07     1.573460e-34
 3.548136e-07     1.837597e-34
 3.981071e-07     2.144249e-34
 4.466837e-07     2.500184e-34
 5.011870e-07     2.913232e-34
 5.623413e-07     3.392480e-34
 6.309576e-07     3.948451e-34
 7.079456e-07     4.593333e-34
 7.943284e-07     5.341274e-34
 8.912505e-07     6.208636e-34
 1.000000e-06     7.214417e-34
 1.122019e-06     8.380604e-34
 1.258925e-06     9.732667e-34
 1.412538e-06     1.130018e-33
 1.584893e-06     1.311733e-33
 1.778279e-06     1.522378e-33
 1.995263e-06     1.766553e-33
 2.238721e-06     2.049580e-33
 2.511887e-06     2.377632e-33
 2.818382e-06     2.757858e-33
 3.162278e-06     3.198550e-33
 3.548136e-06     3.709309e-33
 3.981071e-06     4.301255e-33
 4.466837e-06     4.987297e-33
 5.011870e-06     5.782361e-33
 5.623413e-06     6.703779e-33
 6.309576e-06     7.771608e-33
 7.079456e-06     9.009085e-33
 7.943284e-06     1.044318e-32
 8.912505e-06     1.210507e-32
 1.000000e-05     1.403098e-32
 1.122019e-05     1.626281e-32
 1.258925e-05     1.884911e-32
 1.412538e-05     2.184623e-32
 1.584893e-05     2.531934e-32
 1.778279e-05     2.934404e-32
 1.995263e-05     3.400796e-32
 2.238721e-05     3.941252e-32
 2.511887e-05     4.567538e-32
 2.818382e-05     5.293275e-32
 3.162278e-05     6.134268e-32
 3.548135e-05     7.108806e-32
 3.981071e-05     8.238091e-32
 4.466837e-05     9.546708e-32
 5.011870e-05     1.106311e-31
 5.623413e-05     1.282031e-31
 6.309577e-05     1.485654e-31
 7.079457e-05     1.721607e-31
 7.943284e-05     1.995029e-31
 8.912505e-05     2.311863e-31
 1.000000e-04     2.679008e-31
 1.122018e-04     3.104446e-31
 1.258926e-04     3.596893e-31
 1.412538e-04     4.156851e-31
 1.584893e-04     4.801133e-31
 1.778279e-04     5.546856e-31
 1.995262e-04     6.412640e-31
 2.238722e-04     7.419634e-31
 2.511887e-04     8.592370e-31
 2.818383e-04     9.959616e-31
 3.162278e-04     1.155525e-30
 3.548134e-04     1.341922e-30
 3.981073e-04     1.559878e-30
 4.466837e-04     1.814976e-30
 5.011873e-04     2.113828e-30
 5.623413e-04     2.464266e-30
 6.309572e-04     2.875571e-30
 7.079460e-04     3.358761e-30
 7.943284e-04     3.926897e-30
 8.912510e-04     4.595503e-30
 1.000000e-03     5.383028e-30
 1.122018e-03     6.311400e-30
 1.258926e-03     7.406726e-30
 1.412538e-03     8.700044e-30
 1.584893e-03     1.022835e-29
 1.778279e-03     1.203572e-29
 1.995262e-03     1.417468e-29
 2.238722e-03     1.670790e-29
 2.511887e-03     1.971009e-29
 2.818383e-03     2.327048e-29
 3.162278e-03     2.749560e-29
 3.548133e-03     3.251263e-29
 3.981073e-03     3.847365e-29
 4.466837e-03     4.556035e-29
 5.011873e-03     5.399028e-29
 5.623413e-03     6.402447e-29
 6.309573e-03     7.597775e-29
 7.079460e-03     9.023333e-29
 7.943284e-03     1.072637e-28
 8.912510e-03     1.276612e-28
 1.000000e-02     1.521798e-28
 1.122019e-02     1.817891e-28
 1.258925e-02     2.177374e-28
 1.412538e-02     2.616245e-28
 1.584894e-02     3.154703e-28
 1.778279e-02     3.817835e-28
 1.995263e-02     4.636234e-28
 2.238721e-02     5.646473e-28
 2.511887e-02     6.891649e-28
 2.818385e-02     8.421833e-28
 3.162277e-02     1.029468e-27
 3.548136e-02     1.257634e-27
 3.981071e-02     1.534237e-27
 4.466837e-02     1.867953e-27
 5.011876e-02     2.268752e-27
 5.623413e-02     2.748164e-27
 6.309576e-02     3.319618e-27
 7.079456e-02     3.998792e-27
 7.943284e-02     4.804139e-27
 8.912515e-02     5.757412e-27
 1.000000e-01     6.884349e-27
 1.122019e-01     8.216363e-27
 1.258925e-01     9.755738e-27
 1.412538e-01     1.146486e-26
 1.584894e-01     1.331830e-26
 1.778279e-01     1.529755e-26
 1.995263e-01     1.738810e-26
 2.238721e-01     1.957795e-26
 2.511887e-01     2.185726e-26
 2.818385e-01     2.421792e-26
 3.162278e-01     2.663087e-26
 3.548135e-01     2.887826e-26
 3.981071e-01     3.109699e-26
 4.466837e-01     3.335692e-26
 5.011876e-01     3.569441e-26
 5.623413e-01     3.813163e-26
 6.309576e-01     4.068658e-26
 7.079456e-01     4.337795e-26
 7.943284e-01     4.622774e-26
 8.912515e-01     4.926239e-26
 1.000000e+00     5.251391e-26
 1.122019e+00     5.602078e-26
 1.258925e+00     5.982874e-26
 1.412538e+00     6.399234e-26
 1.584894e+00     6.857599e-26
 1.778279e+00     7.365583e-26
 1.995263e+00     7.932186e-26
 2.238721e+00     8.568003e-26
 2.511887e+00     9.285545e-26
 2.818385e+00     1.009953e-25
 3.162278e+00     1.102727e-25
 3.548136e+00     1.208911e-25
 3.981071e+00     1.330881e-25
 4.466837e+00     1.471417e-25
 5.011876e+00     1.633730e-25
 5.623413e+00     1.821507e-25
 6.309576e+00     2.038453e-25
 7.079456e+00     2.283368e-25
 7.943284e+00     2.565307e-25
 8.912516e+00     2.891693e-25
 1.000000e+01     3.268847e-25
 1.122019e+01     3.701704e-25
 1.258925e+01     4.192611e-25
 1.412538e+01     4.742858e-25
 1.584894e+01     5.350948e-25
 1.778279e+01     6.016938e-25
 1.995263e+01     6.712672e-25
 2.238721e+01     7.307738e-25
 2.511887e+01     8.108812e-25
 2.818385e+01     8.758899e-25
 3.162278e+01     9.232488e-25
 3.548135e+01     9.639452e-25
 3.981071e+01     9.911500e-25
 4.466837e+01     9.996739e-25
 5.011876e+01     9.928475e-25
 5.623413e+01     9.764847e-25
 6.309576e+01     9.526365e-25
 7.079456e+01     9.267061e-25
 7.943284e+01     9.016572e-25
 8.912515e+01     8.781295e-25
 1.000000e+02     8.565966e-25
 1.120000e+02     8.365801e-25
 1.250000e+02     8.169191e-25
 1.400000e+02     7.959097e-25
 1.550000e+02     7.761254e-25
 1.650000e+02     7.637359e-25
 1.750000e+02     7.521116e-25
 1.850000e+02     7.420382e-25
 1.900000e+02     7.394570e-25
 1.950000e+02     7.412685e-25
 2.000000e+02     7.531446e-25
 2.050000e+02     7.881677e-25
 2.100000e+02     8.715748e-25
 2.150000e+02     1.054824e-24
 2.180000e+02     1.250732e-24
 2.210000e+02     1.550317e-24
 2.240000e+02     2.000946e-24
 2.260000e+02     2.419154e-24
 2.270000e+02     2.672419e-24
 2.275000e+02     2.812410e-24
 2.278400e+02     2.947684e-24
 2.380000e+02     1.643558e-23
 2.500000e+02     3.108685e-23
 2.700000e+02     4.714849e-23
 2.900000e+02     5.812591e-23
 3.035000e+02     6.391811e-23
 3.037800e+02     1.215239e-22
 3.045000e+02     1.192634e-22
 3.060000e+02     1.154095e-22
 3.080000e+02     1.110023e-22
 3.100000e+02     1.067987e-22
 3.120000e+02     1.029883e-22
 3.150000e+02     9.813548e-23
 3.200000e+02     9.184391e-23
 3.250000e+02     8.732685e-23
 3.300000e+02     8.435491e-23
 3.400000e+02     8.140477e-23
 3.600000e+02     8.239325e-23
 3.800000e+02     8.683853e-23
 4.050000e+02     9.344486e-23
 4.250000e+02     9.887802e-23
 4.500000e+02     1.055601e-22
 4.650000e+02     1.096473e-22
 4.750000e+02     1.123133e-22
 4.820000e+02     1.141609e-22
 4.870000e+02     1.155227e-22
 4.910000e+02     1.165779e-22
 4.950000e+02     1.176618e-22
 4.980000e+02     1.184173e-22
 5.000000e+02     1.190083e-22
 5.020000e+02     1.195271e-22
 5.039800e+02     1.200415e-22
 5.100000e+02     1.245942e-22
 5.250000e+02     1.341103e-22
 5.600000e+02     1.500094e-22
 6.000000e+02     1.645326e-22
 6.500000e+02     1.811498e-22
 7.000000e+02     1.992049e-22
 7.500000e+02     2.210998e-22
 8.000000e+02     2.495172e-22
 8.300000e+02     2.706218e-22
 8.600000e+02     2.959966e-22
 8.800000e+02     3.155418e-22
 8.900000e+02     3.263515e-22
 8.960000e+02     3.330143e-22
 9.000000e+02     3.376588e-22
 9.030000e+02     3.413016e-22
 9.060000e+02     3.448433e-22
 9.090000e+02     3.485749e-22
 9.117800e+02     3.520967e-22
 9.300000e+02     7.967058e-22
 9.500000e+02     1.482053e-21
 9.750000e+02     2.587632e-21
 9.900000e+02     3.133887e-21
 1.005000e+03     3.790418e-21
 1.025000e+03     4.920063e-21
 1.045000e+03     5.909244e-21
 1.065000e+03     7.274959e-21
 1.085000e+03     8.647477e-21
 1.105000e+03     9.991511e-21
 1.125000e+03     1.144593e-20
 1.145000e+03     1.273687e-20
 1.165000e+03     1.420295e-20
 1.185000e+03     1.546078e-20
 1.205000e+03     1.671510e-20
 1.215600e+03     1.731554e-20
 1.215670e+03     1.853020e-20
 1.216000e+03     1.854393e-20
 1.218000e+03     1.862110e-20
 1.221000e+03     1.871727e-20
 1.225000e+03     1.883870e-20
 1.230000e+03     1.903344e-20
 1.240000e+03     1.955064e-20
 1.250000e+03     2.011878e-20
 1.265000e+03     2.125654e-20
 1.285000e+03     2.262032e-20
 1.305000e+03     2.409419e-20
 1.325000e+03     2.540961e-20
 1.345000e+03     2.684403e-20
 1.365000e+03     2.822295e-20
 1.385000e+03     2.950198e-20
 1.405000e+03     3.065003e-20
 1.425000e+03     3.178355e-20
 1.442000e+03     3.282586e-20
 1.455000e+03     3.356855e-20
 1.475000e+03     3.472504e-20
 1.517000e+03     3.677268e-20
 1.595000e+03     3.978850e-20
 1.672000e+03     4.251802e-20
 1.745000e+03     4.484798e-20
 1.825000e+03     4.699907e-20
 1.905000e+03     4.858475e-20
 1.984000e+03     4.987799e-20
 2.065000e+03     5.079820e-20
 2.135000e+03     5.134957e-20
 2.215000e+03     5.176528e-20
 2.295000e+03     5.212758e-20
 2.375000e+03     5.250284e-20
 2.455000e+03     5.287436e-20
 2.525000e+03     5.317634e-20
 2.605000e+03     5.367942e-20
 2.685000e+03     5.436539e-20
 2.765000e+03     5.486548e-20
 2.845000e+03     5.517345e-20
 2.950000e+03     5.580483e-20
 3.110000e+03     5.666466e-20
 3.270000e+03     5.731979e-20
 3.430000e+03     5.783643e-20
 3.590000e+03     5.826854e-20
 3.730000e+03     5.906897e-20
 3.890000e+03     6.270847e-20
 4.050000e+03     6.674205e-20
 4.210000e+03     7.228254e-20
 4.370000e+03     7.699504e-20
 4.530000e+03     8.138637e-20
 4.690000e+03     8.542646e-20
 4.850000e+03     8.831969e-20
 5.010000e+03     9.100852e-20
 5.170000e+03     9.333281e-20
 5.330000e+03     9.551814e-20
 5.490000e+03     9.749336e-20
 5.650000e+03     9.937076e-20
 5.810000e+03     1.012123e-19
 5.970000e+03     1.026210e-19
 6.130000e+03     1.040423e-19
 6.290000e+03     1.052736e-19
 6.450000e+03     1.063654e-19
 6.610000e+03     1.073484e-19
 6.770000e+03     1.083826e-19
 6.930000e+03     1.092863e-19
 7.090000e+03     1.100657e-19
 7.250000e+03     1.107753e-19
 7.410000e+03     1.114560e-19
 7.570000e+03     1.121615e-19
 7.730000e+03     1.129316e-19
 7.890000e+03     1.136382e-19
 8.050000e+03     1.142546e-19
 8.210000e+03     1.148849e-19
 8.370000e+03     1.154827e-19
 8.530000e+03     1.160336e-19
 8.690000e+03     1.166188e-19
 8.850000e+03     1.173949e-19
 9.010000e+03     1.180994e-19
 9.170000e+03     1.187499e-19
 9.330000e+03     1.196228e-19
 9.490000e+03     1.204814e-19
 9.650000e+03     1.211815e-19
 9.810000e+03     1.219259e-19
 9.970000e+03     1.226598e-19
 1.050000e+04     1.244388e-19
 1.150000e+04     1.260147e-19
 1.250000e+04     1.267986e-19
 1.350000e+04     1.271756e-19
 1.450000e+04     1.276344e-19
 1.550000e+04     1.288892e-19
 1.650000e+04     1.296972e-19
 1.750000e+04     1.291309e-19
 1.850000e+04     1.271588e-19
 1.950000e+04     1.240530e-19
 2.050000e+04     1.206617e-19
 2.150000e+04     1.170324e-19
 2.250000e+04     1.130706e-19
 2.350000e+04     1.081095e-19
 2.450000e+04     1.025437e-19
 2.550000e+04     9.786142e-20
 2.650000e+04     9.344498e-20
 2.750000e+04     8.982138e-20
 2.850000e+04     8.660301e-20
 2.950000e+04     8.369524e-20
 3.050000e+04     8.104133e-20
 3.150000e+04     7.861355e-20
 3.250000e+04     7.637116e-20
 3.350000e+04     7.429539e-20
 3.450000e+04     7.238686e-20
 3.550000e+04     7.065462e-20
 3.650000e+04     6.908903e-20
 3.750000e+04     6.771128e-20
 3.850000e+04     6.644309e-20
 3.950000e+04     6.533788e-20
 4.050000e+04     6.459715e-20
 4.150000e+04     6.370657e-20
 4.250000e+04     6.295327e-20
 4.350000e+04     6.232845e-20
 4.450000e+04     6.170973e-20
 4.550000e+04     6.108531e-20
 4.650000e+04     6.055163e-20
 4.750000e+04     6.022695e-20
 4.850000e+04     6.019624e-20
 4.950000e+04     6.048948e-20
 5.050000e+04     6.111464e-20
 5.150000e+04     6.207847e-20
 5.250000e+04     6.339149e-20
 5.350000e+04     6.531135e-20
 5.450000e+04     6.797243e-20
 5.550000e+04     7.038082e-20
 5.650000e+04     7.274563e-20
 5.750000e+04     7.582269e-20
 5.850000e+04     7.808475e-20
 5.950000e+04     7.976474e-20
 6.050000e+04     8.252778e-20
 6.150000e+04     8.810136e-20
 6.250000e+04     1.015186e-19
 6.350000e+04     1.112468e-19
 6.450000e+04     1.161919e-19
 6.550000e+04     1.205308e-19
 6.650010e+04     1.248798e-19
 6.750010e+04     1.294757e-19
 6.850010e+04     1.336274e-19
 6.950010e+04     1.386444e-19
 7.020000e+04     1.431852e-19
 7.100000e+04     1.474934e-19
 7.180000e+04     1.515465e-19
 7.260000e+04     1.557441e-19
 7.340000e+04     1.610214e-19
 7.420000e+04     1.686832e-19
 7.500000e+04     1.792542e-19
 7.580000e+04     1.925218e-19
 7.660000e+04     2.074676e-19
 7.740000e+04     2.219511e-19
 7.820000e+04     2.359353e-19
 7.900000e+04     2.485662e-19
 7.980000e+04     2.587897e-19
 8.060000e+04     2.665914e-19
 8.140000e+04     2.722358e-19
 8.220000e+04     2.766515e-19
 8.300000e+04     2.801535e-19
 8.380000e+04     2.832031e-19
 8.460000e+04     2.862463e-19
 8.540000e+04     2.898046e-19
 8.620000e+04     2.939150e-19
 8.700000e+04     2.975444e-19
 8.780000e+04     2.996679e-19
 8.860000e+04     3.004487e-19
 8.940000e+04     3.006126e-19
 9.020000e+04     3.002202e-19
 9.100000e+04     2.993690e-19
 9.180000e+04     2.984150e-19
 9.260000e+04     2.973104e-19
 9.340000e+04     2.960011e-19
 9.420000e+04     2.947486e-19
 9.500000e+04     2.935627e-19
 9.580000e+04     2.923877e-19
 9.660000e+04     2.915650e-19
 9.740000e+04     2.907426e-19
 9.820000e+04     2.892942e-19
 9.900000e+04     2.873318e-19
 9.980000e+04     2.851865e-19
 1.006000e+05     2.828324e-19
 1.020000e+05     2.783536e-19
 1.040000e+05     2.711801e-19
 1.060000e+05     2.656110e-19
 1.080000e+05     2.617488e-19
 1.100000e+05     2.596395e-19
 1.120000e+05     2.651137e-19
 1.140000e+05     2.801328e-19
 1.160000e+05     2.825400e-19
 1.180000e+05     2.825366e-19
 1.200000e+05     2.846647e-19
 1.220000e+05     2.893872e-19
 1.240000e+05     2.969461e-19
 1.260000e+05     3.077374e-19
 1.280000e+05     3.276832e-19
 1.300000e+05     3.472869e-19
 1.320000e+05     3.506993e-19
 1.340000e+05     3.593844e-19
 1.360000e+05     3.668376e-19
 1.380000e+05     3.746024e-19
 1.400000e+05     3.819519e-19
 1.420000e+05     3.900810e-19
 1.440000e+05     3.977591e-19
 1.460000e+05     4.044208e-19
 1.480000e+05     4.106588e-19
 1.500000e+05     4.164312e-19
 1.520000e+05     4.217568e-19
 1.540000e+05     4.270965e-19
 1.560000e+05     4.349399e-19
 1.580000e+05     4.417827e-19
 1.600000e+05     4.460584e-19
 1.620000e+05     4.506283e-19
 1.640000e+05     4.556662e-19
 1.660000e+05     4.626613e-19
 1.680000e+05     4.674947e-19
 1.700000e+05     4.739878e-19
 1.720000e+05     4.823107e-19
 1.740000e+05     4.875990e-19
 1.760000e+05     4.929593e-19
 1.780000e+05     4.969069e-19
 1.800000e+05     5.017069e-19
 1.820000e+05     5.054645e-19
 1.840000e+05     5.097816e-19
 1.860000e+05     5.145921e-19
 1.880000e+05     5.243775e-19
 1.900000e+05     5.313537e-19
 1.920000e+05     5.388582e-19
 1.940000e+05     5.477242e-19
 1.960000e+05     5.580544e-19
 1.980000e+05     5.700964e-19
 2.000000e+05     5.828130e-19
 2.020000e+05     5.969656e-19
 2.040000e+05     6.122694e-19
 2.060000e+05     6.275031e-19
 2.080000e+05     6.427706e-19
 2.100000e+05     6.600780e-19
 2.120000e+05     6.770707e-19
 2.140000e+05     6.940174e-19
 2.160000e+05     7.130523e-19
 2.180000e+05     7.330571e-19
 2.200000e+05     7.518244e-19
 2.220000e+05     7.714851e-19
 2.240000e+05     7.930444e-19
 2.260000e+05     8.141425e-19
 2.280000e+05     8.346628e-19
 2.300000e+05     8.569677e-19
 2.320000e+05     8.811487e-19
 2.340000e+05     9.058378e-19
 2.360000e+05     9.305647e-19
 2.380000e+05     9.568980e-19
 2.400000e+05     9.852310e-19
 2.420000e+05     1.014286e-18
 2.440000e+05     1.043233e-18
 2.460000e+05     1.073374e-18
 2.480000e+05     1.105227e-18
 2.500000e+05     1.137522e-18
 2.520000e+05     1.169413e-18
 2.540000e+05     1.201913e-18
 2.560000e+05     1.236100e-18
 2.580000e+05     1.272031e-18
 2.600000e+05     1.308805e-18
 2.620000e+05     1.345448e-18
 2.640000e+05     1.382237e-18
 2.660000e+05     1.420140e-18
 2.680000e+05     1.459866e-18
 2.700000e+05     1.499509e-18
 2.720000e+05     1.538732e-18
 2.740000e+05     1.578082e-18
 2.760000e+05     1.618865e-18
 2.780000e+05     1.661708e-18
 2.800000e+05     1.706650e-18
 2.820000e+05     1.753433e-18
 2.840000e+05     1.800151e-18
 2.860000e+05     1.846449e-18
 2.880000e+05     1.893491e-18
 2.900000e+05     1.942909e-18
 2.920000e+05     1.993481e-18
 2.940000e+05     2.044693e-18
 2.960000e+05     2.097595e-18
 2.980000e+05     2.150934e-18
 3.000000e+05     2.203509e-18
 3.020000e+05     2.257844e-18
 3.040000e+05     2.313812e-18
 3.060000e+05     2.369980e-18
 3.080000e+05     2.426705e-18
 3.100000e+05     2.483676e-18
 3.120000e+05     2.540120e-18
 3.140000e+05     2.598355e-18
 3.160000e+05     2.657837e-18
 3.180000e+05     2.718262e-18
 3.200000e+05     2.780851e-18
 3.220000e+05     2.843385e-18
 3.240000e+05     2.906674e-18
 3.260000e+05     2.972235e-18
 3.280000e+05     3.036357e-18
 3.300000e+05     3.101397e-18
 3.320000e+05     3.165744e-18
 3.340000e+05     3.238564e-18
 3.360000e+05     3.318203e-18
 3.380000e+05     3.391358e-18
 3.400000e+05     3.453322e-18
 3.420000e+05     3.518051e-18
 3.440000e+05     3.583376e-18
 3.460000e+05     3.647476e-18
 3.480000e+05     3.725896e-18
 3.500000e+05     3.811496e-18
 3.520000e+05     3.890780e-18
 3.540000e+05     3.962468e-18
 3.560000e+05     4.025711e-18
 3.580000e+05     4.088016e-18
 3.600000e+05     4.157609e-18
 3.620000e+05     4.226431e-18
 3.640000e+05     4.290997e-18
 3.660000e+05     4.357211e-18
 3.680000e+05     4.426609e-18
 3.700000e+05     4.495268e-18
 3.720000e+05     4.564096e-18
 3.740000e+05     4.635228e-18
 3.760000e+05     4.707230e-18
 3.780000e+05     4.778825e-18
 3.800000e+05     4.851535e-18
 3.820000e+05     4.925941e-18
 3.840000e+05     5.000694e-18
 3.860000e+05     5.075975e-18
 3.880000e+05     5.152905e-18
 3.900000e+05     5.231101e-18
 3.920000e+05     5.309486e-18
 4.320000e+05     6.933526e-18
 4.760000e+05     8.783126e-18
 5.250000e+05     1.080609e-17
 5.790000e+05     1.288060e-17
 6.390000e+05     1.491235e-17
 7.040000e+05     1.664646e-17
 7.760000e+05     1.794151e-17
 8.560000e+05     1.870584e-17
 9.430000e+05     1.892994e-17
 1.040000e+06     1.869628e-17
 1.147000e+06     1.811328e-17
 1.264000e+06     1.730596e-17
 1.394000e+06     1.637067e-17
 1.537000e+06     1.539157e-17
 1.694000e+06     1.440763e-17
 1.868000e+06     1.342335e-17
 2.059000e+06     1.243765e-17
 2.270000e+06     1.142933e-17
 2.503000e+06     1.038746e-17
 2.760000e+06     9.312688e-18
 3.043000e+06     8.220024e-18
 3.354000e+06     7.134881e-18
 3.698000e+06     6.079520e-18
