## EBL from Khaire & Srianand 2018; Q14 Model with alpha=-1.4 
## Column1:wavelength (Angstrom);  Column2:EBL specific intensity J_nu (erg/s/cm^2/Hz/Sr)
## ===========================================================================================
 1.000000e-08     7.559731e-37
 1.122019e-08     1.101080e-36
 1.258925e-08     1.588639e-36
 1.412538e-08     2.258585e-36
 1.584893e-08     3.156943e-36
 1.778279e-08     4.336610e-36
 1.995263e-08     5.858230e-36
 2.238721e-08     7.791224e-36
 2.511887e-08     1.021510e-35
 2.818382e-08     1.322074e-35
 3.162278e-08     1.691229e-35
 3.548135e-08     2.140899e-35
 3.981071e-08     2.684764e-35
 4.466837e-08     3.338557e-35
 5.011870e-08     4.120368e-35
 5.623413e-08     5.051080e-35
 6.309576e-08     6.154770e-35
 7.079456e-08     7.459259e-35
 7.943284e-08     8.996760e-35
 8.912505e-08     1.080449e-34
 1.000000e-07     1.292564e-34
 1.122019e-07     1.541013e-34
 1.258925e-07     1.831583e-34
 1.412538e-07     2.170990e-34
 1.584892e-07     2.566996e-34
 1.778279e-07     3.028623e-34
 1.995263e-07     3.566311e-34
 2.238721e-07     4.192156e-34
 2.511887e-07     4.920198e-34
 2.818382e-07     5.766686e-34
 3.162278e-07     6.750481e-34
 3.548136e-07     7.893419e-34
 3.981071e-07     9.220798e-34
 4.466837e-07     1.076198e-33
 5.011870e-07     1.255095e-33
 5.623413e-07     1.462713e-33
 6.309576e-07     1.703618e-33
 7.079456e-07     1.983099e-33
 7.943284e-07     2.307294e-33
 8.912505e-07     2.683303e-33
 1.000000e-06     3.119371e-33
 1.122019e-06     3.625038e-33
 1.258925e-06     4.211356e-33
 1.412538e-06     4.891157e-33
 1.584893e-06     5.679278e-33
 1.778279e-06     6.592939e-33
 1.995263e-06     7.652087e-33
 2.238721e-06     8.879818e-33
 2.511887e-06     1.030293e-32
 2.818382e-06     1.195243e-32
 3.162278e-06     1.386432e-32
 3.548136e-06     1.608026e-32
 3.981071e-06     1.864849e-32
 4.466837e-06     2.162504e-32
 5.011870e-06     2.507468e-32
 5.623413e-06     2.907263e-32
 6.309576e-06     3.370592e-32
 7.079456e-06     3.907539e-32
 7.943284e-06     4.529805e-32
 8.912505e-06     5.250928e-32
 1.000000e-05     6.086619e-32
 1.122019e-05     7.055065e-32
 1.258925e-05     8.177331e-32
 1.412538e-05     9.477872e-32
 1.584893e-05     1.098496e-31
 1.778279e-05     1.273143e-31
 1.995263e-05     1.475528e-31
 2.238721e-05     1.710053e-31
 2.511887e-05     1.981826e-31
 2.818382e-05     2.296755e-31
 3.162278e-05     2.661700e-31
 3.548135e-05     3.084598e-31
 3.981071e-05     3.574648e-31
 4.466837e-05     4.142521e-31
 5.011870e-05     4.800562e-31
 5.623413e-05     5.563102e-31
 6.309577e-05     6.446727e-31
 7.079457e-05     7.470651e-31
 7.943284e-05     8.657171e-31
 8.912505e-05     1.003208e-30
 1.000000e-04     1.162532e-30
 1.122018e-04     1.347152e-30
 1.258926e-04     1.561029e-30
 1.412538e-04     1.806534e-30
 1.584893e-04     2.088806e-30
 1.778279e-04     2.414332e-30
 1.995262e-04     2.790836e-30
 2.238722e-04     3.227396e-30
 2.511887e-04     3.734612e-30
 2.818383e-04     4.324880e-30
 3.162278e-04     5.012728e-30
 3.548134e-04     5.815221e-30
 3.981073e-04     6.752470e-30
 4.466837e-04     7.848200e-30
 5.011873e-04     9.130462e-30
 5.623413e-04     1.063244e-29
 6.309572e-04     1.239343e-29
 7.079460e-04     1.446004e-29
 7.943284e-04     1.688747e-29
 8.912510e-04     1.974130e-29
 1.000000e-03     2.309938e-29
 1.122018e-03     2.705420e-29
 1.258926e-03     3.171581e-29
 1.412538e-03     3.721498e-29
 1.584893e-03     4.370744e-29
 1.778279e-03     5.137867e-29
 1.995262e-03     6.044960e-29
 2.238722e-03     7.118361e-29
 2.511887e-03     8.389463e-29
 2.818383e-03     9.895731e-29
 3.162278e-03     1.168188e-28
 3.548133e-03     1.380129e-28
 3.981073e-03     1.631772e-28
 4.466837e-03     1.930735e-28
 5.011873e-03     2.286127e-28
 5.623413e-03     2.708862e-28
 6.309573e-03     3.212054e-28
 7.079460e-03     3.811558e-28
 7.943284e-03     4.526720e-28
 8.912510e-03     5.381469e-28
 1.000000e-02     6.405818e-28
 1.122019e-02     7.637885e-28
 1.258925e-02     9.126406e-28
 1.412538e-02     1.093381e-27
 1.584894e-02     1.313942e-27
 1.778279e-02     1.584293e-27
 1.995263e-02     1.916782e-27
 2.238721e-02     2.326433e-27
 2.511887e-02     2.831267e-27
 2.818385e-02     3.452569e-27
 3.162277e-02     4.215187e-27
 3.548136e-02     5.147927e-27
 3.981071e-02     6.283902e-27
 4.466837e-02     7.661212e-27
 5.011876e-02     9.323603e-27
 5.623413e-02     1.132147e-26
 6.309576e-02     1.371318e-26
 7.079456e-02     1.656652e-26
 7.943284e-02     1.996075e-26
 8.912515e-02     2.398884e-26
 1.000000e-01     2.876030e-26
 1.122019e-01     3.440572e-26
 1.258925e-01     4.101767e-26
 1.412538e-01     4.856850e-26
 1.584894e-01     5.699823e-26
 1.778279e-01     6.623035e-26
 1.995263e-01     7.618366e-26
 2.238721e-01     8.677977e-26
 2.511887e-01     9.794837e-26
 2.818385e-01     1.096288e-25
 3.162278e-01     1.217448e-25
 3.548135e-01     1.337383e-25
 3.981071e-01     1.456295e-25
 4.466837e-01     1.575295e-25
 5.011876e-01     1.695761e-25
 5.623413e-01     1.819084e-25
 6.309576e-01     1.946569e-25
 7.079456e-01     2.079432e-25
 7.943284e-01     2.218877e-25
 8.912515e-01     2.366173e-25
 1.000000e+00     2.522747e-25
 1.122019e+00     2.690253e-25
 1.258925e+00     2.870638e-25
 1.412538e+00     3.066215e-25
 1.584894e+00     3.279720e-25
 1.778279e+00     3.514396e-25
 1.995263e+00     3.774088e-25
 2.238721e+00     4.063330e-25
 2.511887e+00     4.387494e-25
 2.818385e+00     4.752925e-25
 3.162278e+00     5.167119e-25
 3.548136e+00     5.638957e-25
 3.981071e+00     6.178924e-25
 4.466837e+00     6.799448e-25
 5.011876e+00     7.515213e-25
 5.623413e+00     8.343583e-25
 6.309576e+00     9.304564e-25
 7.079456e+00     1.040860e-24
 7.943284e+00     1.168620e-24
 8.912516e+00     1.317519e-24
 1.000000e+01     1.491946e-24
 1.122019e+01     1.696915e-24
 1.258925e+01     1.938081e-24
 1.412538e+01     2.221815e-24
 1.584894e+01     2.555205e-24
 1.778279e+01     2.946034e-24
 1.995263e+01     3.402638e-24
 2.238721e+01     3.933535e-24
 2.511887e+01     4.546843e-24
 2.818385e+01     5.249307e-24
 3.162278e+01     6.044973e-24
 3.548135e+01     6.933670e-24
 3.981071e+01     7.909732e-24
 4.466837e+01     8.953674e-24
 5.011876e+01     9.962265e-24
 5.623413e+01     1.108723e-23
 6.309576e+01     1.239140e-23
 7.079456e+01     1.371519e-23
 7.943284e+01     1.521247e-23
 8.912515e+01     1.694652e-23
 1.000000e+02     1.896404e-23
 1.120000e+02     2.118057e-23
 1.250000e+02     2.367079e-23
 1.400000e+02     2.654202e-23
 1.550000e+02     2.921899e-23
 1.650000e+02     3.099870e-23
 1.750000e+02     3.262325e-23
 1.850000e+02     3.421980e-23
 1.900000e+02     3.502650e-23
 1.950000e+02     3.575431e-23
 2.000000e+02     3.649670e-23
 2.050000e+02     3.737676e-23
 2.100000e+02     3.832691e-23
 2.150000e+02     3.968372e-23
 2.180000e+02     4.080988e-23
 2.210000e+02     4.238076e-23
 2.240000e+02     4.448084e-23
 2.260000e+02     4.644444e-23
 2.270000e+02     4.753036e-23
 2.275000e+02     4.816522e-23
 2.278400e+02     4.865635e-23
 2.380000e+02     5.580586e-23
 2.500000e+02     6.407306e-23
 2.700000e+02     7.731105e-23
 2.900000e+02     8.950955e-23
 3.035000e+02     9.781865e-23
 3.037800e+02     1.351385e-22
 3.045000e+02     1.354716e-22
 3.060000e+02     1.362552e-22
 3.080000e+02     1.372931e-22
 3.100000e+02     1.383236e-22
 3.120000e+02     1.393880e-22
 3.150000e+02     1.409120e-22
 3.200000e+02     1.431940e-22
 3.250000e+02     1.453775e-22
 3.300000e+02     1.474429e-22
 3.400000e+02     1.517418e-22
 3.600000e+02     1.580107e-22
 3.800000e+02     1.637791e-22
 4.050000e+02     1.703362e-22
 4.250000e+02     1.763887e-22
 4.500000e+02     1.839719e-22
 4.650000e+02     1.895953e-22
 4.750000e+02     1.929021e-22
 4.820000e+02     1.952650e-22
 4.870000e+02     1.969736e-22
 4.910000e+02     1.983519e-22
 4.950000e+02     2.006681e-22
 4.980000e+02     2.017250e-22
 5.000000e+02     2.024369e-22
 5.020000e+02     2.031548e-22
 5.039800e+02     2.042317e-22
 5.100000e+02     2.075602e-22
 5.250000e+02     2.138732e-22
 5.600000e+02     2.301882e-22
 6.000000e+02     2.501313e-22
 6.500000e+02     2.758975e-22
 7.000000e+02     3.022063e-22
 7.500000e+02     3.320343e-22
 8.000000e+02     3.634198e-22
 8.300000e+02     3.843169e-22
 8.600000e+02     4.078570e-22
 8.800000e+02     4.256748e-22
 8.900000e+02     4.342332e-22
 8.960000e+02     4.394628e-22
 9.000000e+02     4.432792e-22
 9.030000e+02     4.476963e-22
 9.060000e+02     4.506086e-22
 9.090000e+02     4.535395e-22
 9.117800e+02     4.562719e-22
 9.300000e+02     6.276336e-22
 9.500000e+02     6.810869e-22
 9.750000e+02     8.577187e-22
 9.900000e+02     9.134127e-22
 1.005000e+03     1.051095e-21
 1.025000e+03     1.235448e-21
 1.045000e+03     1.437078e-21
 1.065000e+03     1.683711e-21
 1.085000e+03     1.964686e-21
 1.105000e+03     2.251890e-21
 1.125000e+03     2.580036e-21
 1.145000e+03     2.897183e-21
 1.165000e+03     3.246374e-21
 1.185000e+03     3.603319e-21
 1.205000e+03     3.957490e-21
 1.215600e+03     4.140316e-21
 1.215670e+03     4.241456e-21
 1.216000e+03     4.246456e-21
 1.218000e+03     4.276515e-21
 1.221000e+03     4.319794e-21
 1.225000e+03     4.374621e-21
 1.230000e+03     4.449947e-21
 1.240000e+03     4.630652e-21
 1.250000e+03     4.814822e-21
 1.265000e+03     5.150862e-21
 1.285000e+03     5.606523e-21
 1.305000e+03     6.087726e-21
 1.325000e+03     6.576973e-21
 1.345000e+03     7.084011e-21
 1.365000e+03     7.607609e-21
 1.385000e+03     8.128372e-21
 1.405000e+03     8.643389e-21
 1.425000e+03     9.158005e-21
 1.442000e+03     9.602027e-21
 1.455000e+03     9.950984e-21
 1.475000e+03     1.050893e-20
 1.517000e+03     1.158627e-20
 1.595000e+03     1.351211e-20
 1.672000e+03     1.544248e-20
 1.745000e+03     1.718051e-20
 1.825000e+03     1.901616e-20
 1.905000e+03     2.066915e-20
 1.984000e+03     2.217832e-20
 2.065000e+03     2.350509e-20
 2.135000e+03     2.444649e-20
 2.215000e+03     2.542075e-20
 2.295000e+03     2.633062e-20
 2.375000e+03     2.723849e-20
 2.455000e+03     2.813749e-20
 2.525000e+03     2.894457e-20
 2.605000e+03     2.987335e-20
 2.685000e+03     3.093066e-20
 2.765000e+03     3.192387e-20
 2.845000e+03     3.276955e-20
 2.950000e+03     3.407731e-20
 3.110000e+03     3.607113e-20
 3.270000e+03     3.795185e-20
 3.430000e+03     3.981327e-20
 3.590000e+03     4.161788e-20
 3.730000e+03     4.327866e-20
 3.890000e+03     4.665731e-20
 4.050000e+03     5.009021e-20
 4.210000e+03     5.568399e-20
 4.370000e+03     6.079791e-20
 4.530000e+03     6.596615e-20
 4.690000e+03     7.125645e-20
 4.850000e+03     7.610833e-20
 5.010000e+03     8.039972e-20
 5.170000e+03     8.485246e-20
 5.330000e+03     8.904917e-20
 5.490000e+03     9.323869e-20
 5.650000e+03     9.734684e-20
 5.810000e+03     1.013932e-19
 5.970000e+03     1.050739e-19
 6.130000e+03     1.086826e-19
 6.290000e+03     1.120020e-19
 6.450000e+03     1.152145e-19
 6.610000e+03     1.181559e-19
 6.770000e+03     1.211241e-19
 6.930000e+03     1.238796e-19
 7.090000e+03     1.264687e-19
 7.250000e+03     1.289255e-19
 7.410000e+03     1.312790e-19
 7.570000e+03     1.335628e-19
 7.730000e+03     1.358645e-19
 7.890000e+03     1.380399e-19
 8.050000e+03     1.401130e-19
 8.210000e+03     1.420828e-19
 8.370000e+03     1.440327e-19
 8.530000e+03     1.458364e-19
 8.690000e+03     1.476134e-19
 8.850000e+03     1.494714e-19
 9.010000e+03     1.512651e-19
 9.170000e+03     1.529917e-19
 9.330000e+03     1.547381e-19
 9.490000e+03     1.566864e-19
 9.650000e+03     1.582669e-19
 9.810000e+03     1.599843e-19
 9.970000e+03     1.616432e-19
 1.050000e+04     1.665423e-19
 1.150000e+04     1.731136e-19
 1.250000e+04     1.784167e-19
 1.350000e+04     1.824125e-19
 1.450000e+04     1.858568e-19
 1.550000e+04     1.893979e-19
 1.650000e+04     1.923787e-19
 1.750000e+04     1.936324e-19
 1.850000e+04     1.930206e-19
 1.950000e+04     1.908180e-19
 2.050000e+04     1.876695e-19
 2.150000e+04     1.839856e-19
 2.250000e+04     1.797195e-19
 2.350000e+04     1.745175e-19
 2.450000e+04     1.682128e-19
 2.550000e+04     1.623524e-19
 2.650000e+04     1.565172e-19
 2.750000e+04     1.512359e-19
 2.850000e+04     1.463093e-19
 2.950000e+04     1.415828e-19
 3.050000e+04     1.370317e-19
 3.150000e+04     1.326298e-19
 3.250000e+04     1.283481e-19
 3.350000e+04     1.241141e-19
 3.450000e+04     1.200763e-19
 3.550000e+04     1.162504e-19
 3.650000e+04     1.125648e-19
 3.750000e+04     1.090419e-19
 3.850000e+04     1.057779e-19
 3.950000e+04     1.025503e-19
 4.050000e+04     9.939718e-20
 4.150000e+04     9.631172e-20
 4.250000e+04     9.335091e-20
 4.350000e+04     9.051107e-20
 4.450000e+04     8.779169e-20
 4.550000e+04     8.516192e-20
 4.650000e+04     8.268451e-20
 4.750000e+04     8.045554e-20
 4.850000e+04     7.849757e-20
 4.950000e+04     7.677477e-20
 5.050000e+04     7.540760e-20
 5.150000e+04     7.442878e-20
 5.250000e+04     7.455194e-20
 5.350000e+04     7.600792e-20
 5.450000e+04     7.710223e-20
 5.550000e+04     7.804673e-20
 5.650000e+04     8.000571e-20
 5.750000e+04     8.287909e-20
 5.850000e+04     8.531170e-20
 5.950000e+04     8.803102e-20
 6.050000e+04     9.311455e-20
 6.150000e+04     1.018715e-19
 6.250000e+04     1.206204e-19
 6.350000e+04     1.343187e-19
 6.450000e+04     1.401036e-19
 6.550000e+04     1.420098e-19
 6.650010e+04     1.463575e-19
 6.750010e+04     1.501291e-19
 6.850010e+04     1.536706e-19
 6.950010e+04     1.594655e-19
 7.020000e+04     1.647582e-19
 7.100000e+04     1.703514e-19
 7.180000e+04     1.769464e-19
 7.260000e+04     1.841805e-19
 7.340000e+04     1.930551e-19
 7.420000e+04     2.054444e-19
 7.500000e+04     2.218421e-19
 7.580000e+04     2.411478e-19
 7.660000e+04     2.621034e-19
 7.740000e+04     2.814258e-19
 7.820000e+04     2.988795e-19
 7.900000e+04     3.137487e-19
 7.980000e+04     3.250145e-19
 8.060000e+04     3.330195e-19
 8.140000e+04     3.383904e-19
 8.220000e+04     3.422565e-19
 8.300000e+04     3.460286e-19
 8.380000e+04     3.501084e-19
 8.460000e+04     3.540750e-19
 8.540000e+04     3.585379e-19
 8.620000e+04     3.631672e-19
 8.700000e+04     3.663511e-19
 8.780000e+04     3.667435e-19
 8.860000e+04     3.646240e-19
 8.940000e+04     3.610285e-19
 9.020000e+04     3.566677e-19
 9.100000e+04     3.519870e-19
 9.180000e+04     3.471120e-19
 9.260000e+04     3.421240e-19
 9.340000e+04     3.370126e-19
 9.420000e+04     3.319703e-19
 9.500000e+04     3.271348e-19
 9.580000e+04     3.224296e-19
 9.660000e+04     3.182132e-19
 9.740000e+04     3.141242e-19
 9.820000e+04     3.095460e-19
 9.900000e+04     3.049907e-19
 9.980000e+04     3.005365e-19
 1.006000e+05     2.965021e-19
 1.020000e+05     2.899195e-19
 1.040000e+05     2.816526e-19
 1.060000e+05     2.773571e-19
 1.080000e+05     2.756013e-19
 1.100000e+05     2.750570e-19
 1.120000e+05     2.870402e-19
 1.140000e+05     3.149469e-19
 1.160000e+05     3.280372e-19
 1.180000e+05     3.281758e-19
 1.200000e+05     3.375000e-19
 1.220000e+05     3.472092e-19
 1.240000e+05     3.589252e-19
 1.260000e+05     3.735948e-19
 1.280000e+05     3.977365e-19
 1.300000e+05     4.173493e-19
 1.320000e+05     4.242900e-19
 1.340000e+05     4.246898e-19
 1.360000e+05     4.352591e-19
 1.380000e+05     4.407240e-19
 1.400000e+05     4.423823e-19
 1.420000e+05     4.513548e-19
 1.440000e+05     4.557061e-19
 1.460000e+05     4.578352e-19
 1.480000e+05     4.638171e-19
 1.500000e+05     4.674716e-19
 1.520000e+05     4.719098e-19
 1.540000e+05     4.778386e-19
 1.560000e+05     4.856508e-19
 1.580000e+05     4.930542e-19
 1.600000e+05     5.002984e-19
 1.620000e+05     5.081736e-19
 1.640000e+05     5.191874e-19
 1.660000e+05     5.340882e-19
 1.680000e+05     5.474498e-19
 1.700000e+05     5.625844e-19
 1.720000e+05     5.784391e-19
 1.740000e+05     5.930962e-19
 1.760000e+05     6.060785e-19
 1.780000e+05     6.156089e-19
 1.800000e+05     6.262462e-19
 1.820000e+05     6.368834e-19
 1.840000e+05     6.472881e-19
 1.860000e+05     6.578571e-19
 1.880000e+05     6.759753e-19
 1.900000e+05     6.887221e-19
 1.920000e+05     7.010915e-19
 1.940000e+05     7.129079e-19
 1.960000e+05     7.256180e-19
 1.980000e+05     7.393417e-19
 2.000000e+05     7.541203e-19
 2.020000e+05     7.692832e-19
 2.040000e+05     7.848193e-19
 2.060000e+05     8.013982e-19
 2.080000e+05     8.178132e-19
 2.100000e+05     8.354371e-19
 2.120000e+05     8.535571e-19
 2.140000e+05     8.718493e-19
 2.160000e+05     8.924855e-19
 2.180000e+05     9.144249e-19
 2.200000e+05     9.349722e-19
 2.220000e+05     9.570537e-19
 2.240000e+05     9.817898e-19
 2.260000e+05     1.005819e-18
 2.280000e+05     1.029537e-18
 2.300000e+05     1.055366e-18
 2.320000e+05     1.082965e-18
 2.340000e+05     1.110473e-18
 2.360000e+05     1.138179e-18
 2.380000e+05     1.167655e-18
 2.400000e+05     1.198828e-18
 2.420000e+05     1.229987e-18
 2.440000e+05     1.260659e-18
 2.460000e+05     1.293189e-18
 2.480000e+05     1.327821e-18
 2.500000e+05     1.363023e-18
 2.520000e+05     1.397865e-18
 2.540000e+05     1.433620e-18
 2.560000e+05     1.471612e-18
 2.580000e+05     1.511715e-18
 2.600000e+05     1.552737e-18
 2.620000e+05     1.593215e-18
 2.640000e+05     1.634458e-18
 2.660000e+05     1.677331e-18
 2.680000e+05     1.721758e-18
 2.700000e+05     1.766745e-18
 2.720000e+05     1.812379e-18
 2.740000e+05     1.858997e-18
 2.760000e+05     1.906876e-18
 2.780000e+05     1.956627e-18
 2.800000e+05     2.007591e-18
 2.820000e+05     2.059804e-18
 2.840000e+05     2.112572e-18
 2.860000e+05     2.164908e-18
 2.880000e+05     2.217517e-18
 2.900000e+05     2.271652e-18
 2.920000e+05     2.326758e-18
 2.940000e+05     2.383279e-18
 2.960000e+05     2.441474e-18
 2.980000e+05     2.499696e-18
 3.000000e+05     2.557702e-18
 3.020000e+05     2.617544e-18
 3.040000e+05     2.678637e-18
 3.060000e+05     2.740560e-18
 3.080000e+05     2.804028e-18
 3.100000e+05     2.867721e-18
 3.120000e+05     2.930980e-18
 3.140000e+05     2.995490e-18
 3.160000e+05     3.062824e-18
 3.180000e+05     3.130222e-18
 3.200000e+05     3.200130e-18
 3.220000e+05     3.271290e-18
 3.240000e+05     3.343368e-18
 3.260000e+05     3.417270e-18
 3.280000e+05     3.491533e-18
 3.300000e+05     3.568604e-18
 3.320000e+05     3.646259e-18
 3.340000e+05     3.731321e-18
 3.360000e+05     3.822913e-18
 3.380000e+05     3.910160e-18
 3.400000e+05     3.990542e-18
 3.420000e+05     4.071162e-18
 3.440000e+05     4.156232e-18
 3.460000e+05     4.242611e-18
 3.480000e+05     4.336500e-18
 3.500000e+05     4.437099e-18
 3.520000e+05     4.523978e-18
 3.540000e+05     4.607897e-18
 3.560000e+05     4.691208e-18
 3.580000e+05     4.771861e-18
 3.600000e+05     4.857016e-18
 3.620000e+05     4.943825e-18
 3.640000e+05     5.025013e-18
 3.660000e+05     5.108011e-18
 3.680000e+05     5.195089e-18
 3.700000e+05     5.281445e-18
 3.720000e+05     5.369496e-18
 3.740000e+05     5.458757e-18
 3.760000e+05     5.546765e-18
 3.780000e+05     5.636140e-18
 3.800000e+05     5.726252e-18
 3.820000e+05     5.819008e-18
 3.840000e+05     5.912138e-18
 3.860000e+05     6.005589e-18
 3.880000e+05     6.100763e-18
 3.900000e+05     6.196568e-18
 3.920000e+05     6.291118e-18
 4.320000e+05     8.376928e-18
 4.760000e+05     1.094708e-17
 5.250000e+05     1.401578e-17
 5.790000e+05     1.748006e-17
 6.390000e+05     2.122099e-17
 7.040000e+05     2.487128e-17
 7.760000e+05     2.814955e-17
 8.560000e+05     3.071716e-17
 9.430000e+05     3.231173e-17
 1.040000e+06     3.287262e-17
 1.147000e+06     3.240873e-17
 1.264000e+06     3.105999e-17
 1.394000e+06     2.898923e-17
 1.537000e+06     2.643462e-17
 1.694000e+06     2.361381e-17
 1.868000e+06     2.069136e-17
 2.059000e+06     1.784963e-17
 2.270000e+06     1.518301e-17
 2.503000e+06     1.276638e-17
 2.760000e+06     1.063826e-17
 3.043000e+06     8.808565e-18
 3.354000e+06     7.264290e-18
 3.698000e+06     5.969864e-18
