## EBL from Khaire & Srianand 2018; Q14 Model with alpha=-1.4 
## Column1:wavelength (Angstrom);  Column2:EBL specific intensity J_nu (erg/s/cm^2/Hz/Sr)
## ===========================================================================================
 1.000000e-08     2.466520e-37
 1.122019e-08     3.586122e-37
 1.258925e-08     5.135030e-37
 1.412538e-08     7.211394e-37
 1.584893e-08     9.931622e-37
 1.778279e-08     1.343132e-36
 1.995263e-08     1.786665e-36
 2.238721e-08     2.341641e-36
 2.511887e-08     3.028515e-36
 2.818382e-08     3.870661e-36
 3.162278e-08     4.894866e-36
 3.548135e-08     6.131834e-36
 3.981071e-08     7.616856e-36
 4.466837e-08     9.390596e-36
 5.011870e-08     1.149989e-35
 5.623413e-08     1.399890e-35
 6.309576e-08     1.695018e-35
 7.079456e-08     2.042606e-35
 7.943284e-08     2.451040e-35
 8.912505e-08     2.930016e-35
 1.000000e-07     3.490784e-35
 1.122019e-07     4.146365e-35
 1.258925e-07     4.911846e-35
 1.412538e-07     5.804740e-35
 1.584892e-07     6.845300e-35
 1.778279e-07     8.057058e-35
 1.995263e-07     9.467246e-35
 2.238721e-07     1.110742e-34
 2.511887e-07     1.301420e-34
 2.818382e-07     1.522998e-34
 3.162278e-07     1.780394e-34
 3.548136e-07     2.079306e-34
 3.981071e-07     2.426331e-34
 4.466837e-07     2.829129e-34
 5.011870e-07     3.296562e-34
 5.623413e-07     3.838914e-34
 6.309576e-07     4.468092e-34
 7.079456e-07     5.197891e-34
 7.943284e-07     6.044320e-34
 8.912505e-07     7.025898e-34
 1.000000e-06     8.164125e-34
 1.122019e-06     9.483881e-34
 1.258925e-06     1.101399e-33
 1.412538e-06     1.278793e-33
 1.584893e-06     1.484438e-33
 1.778279e-06     1.722823e-33
 1.995263e-06     1.999154e-33
 2.238721e-06     2.319453e-33
 2.511887e-06     2.690707e-33
 2.818382e-06     3.121006e-33
 3.162278e-06     3.619735e-33
 3.548136e-06     4.197758e-33
 3.981071e-06     4.867661e-33
 4.466837e-06     5.644051e-33
 5.011870e-06     6.543821e-33
 5.623413e-06     7.586586e-33
 6.309576e-06     8.795044e-33
 7.079456e-06     1.019549e-32
 7.943284e-06     1.181845e-32
 8.912505e-06     1.369921e-32
 1.000000e-05     1.587876e-32
 1.122019e-05     1.840451e-32
 1.258925e-05     2.133142e-32
 1.412538e-05     2.472325e-32
 1.584893e-05     2.865376e-32
 1.778279e-05     3.320851e-32
 1.995263e-05     3.848665e-32
 2.238721e-05     4.460298e-32
 2.511887e-05     5.169065e-32
 2.818382e-05     5.990380e-32
 3.162278e-05     6.942130e-32
 3.548135e-05     8.045013e-32
 3.981071e-05     9.323022e-32
 4.466837e-05     1.080398e-31
 5.011870e-05     1.252009e-31
 5.623413e-05     1.450871e-31
 6.309577e-05     1.681311e-31
 7.079457e-05     1.948339e-31
 7.943284e-05     2.257770e-31
 8.912505e-05     2.616330e-31
 1.000000e-04     3.031828e-31
 1.122018e-04     3.513295e-31
 1.258926e-04     4.070615e-31
 1.412538e-04     4.704460e-31
 1.584893e-04     5.433704e-31
 1.778279e-04     6.277690e-31
 1.995262e-04     7.257492e-31
 2.238722e-04     8.397053e-31
 2.511887e-04     9.724136e-31
 2.818383e-04     1.127130e-30
 3.162278e-04     1.307686e-30
 3.548134e-04     1.518603e-30
 3.981073e-04     1.765226e-30
 4.466837e-04     2.053872e-30
 5.011873e-04     2.392020e-30
 5.623413e-04     2.788530e-30
 6.309572e-04     3.253903e-30
 7.079460e-04     3.800601e-30
 7.943284e-04     4.443400e-30
 8.912510e-04     5.199861e-30
 1.000000e-03     6.090854e-30
 1.122018e-03     7.141182e-30
 1.258926e-03     8.380380e-30
 1.412538e-03     9.843555e-30
 1.584893e-03     1.157256e-29
 1.778279e-03     1.361724e-29
 1.995262e-03     1.603703e-29
 2.238722e-03     1.890280e-29
 2.511887e-03     2.229906e-29
 2.818383e-03     2.632675e-29
 3.162278e-03     3.110635e-29
 3.548133e-03     3.678173e-29
 3.981073e-03     4.352491e-29
 4.466837e-03     5.154139e-29
 5.011873e-03     6.107723e-29
 5.623413e-03     7.242768e-29
 6.309573e-03     8.594878e-29
 7.079460e-03     1.020739e-28
 7.943284e-03     1.213371e-28
 8.912510e-03     1.444081e-28
 1.000000e-02     1.721389e-28
 1.122019e-02     2.056248e-28
 1.258925e-02     2.462763e-28
 1.412538e-02     2.959008e-28
 1.584894e-02     3.567809e-28
 1.778279e-02     4.317521e-28
 1.995263e-02     5.242731e-28
 2.238721e-02     6.384802e-28
 2.511887e-02     7.792485e-28
 2.818385e-02     9.522439e-28
 3.162277e-02     1.163991e-27
 3.548136e-02     1.421978e-27
 3.981071e-02     1.734757e-27
 4.466837e-02     2.112149e-27
 5.011876e-02     2.565439e-27
 5.623413e-02     3.107675e-27
 6.309576e-02     3.754056e-27
 7.079456e-02     4.522322e-27
 7.943284e-02     5.433352e-27
 8.912515e-02     6.511756e-27
 1.000000e-01     7.786652e-27
 1.122019e-01     9.293554e-27
 1.258925e-01     1.103561e-26
 1.412538e-01     1.297084e-26
 1.584894e-01     1.507051e-26
 1.778279e-01     1.731350e-26
 1.995263e-01     1.968326e-26
 2.238721e-01     2.216607e-26
 2.511887e-01     2.475068e-26
 2.818385e-01     2.742786e-26
 3.162278e-01     3.016535e-26
 3.548135e-01     3.271801e-26
 3.981071e-01     3.523732e-26
 4.466837e-01     3.780198e-26
 5.011876e-01     4.045358e-26
 5.623413e-01     4.321760e-26
 6.309576e-01     4.611468e-26
 7.079456e-01     4.916610e-26
 7.943284e-01     5.239679e-26
 8.912515e-01     5.583668e-26
 1.000000e+00     5.952198e-26
 1.122019e+00     6.349623e-26
 1.258925e+00     6.781119e-26
 1.412538e+00     7.252860e-26
 1.584894e+00     7.772136e-26
 1.778279e+00     8.347568e-26
 1.995263e+00     8.989350e-26
 2.238721e+00     9.709487e-26
 2.511887e+00     1.052216e-25
 2.818385e+00     1.144407e-25
 3.162278e+00     1.249487e-25
 3.548136e+00     1.369771e-25
 3.981071e+00     1.507968e-25
 4.466837e+00     1.667252e-25
 5.011876e+00     1.851310e-25
 5.623413e+00     2.064397e-25
 6.309576e+00     2.310853e-25
 7.079456e+00     2.589583e-25
 7.943284e+00     2.911070e-25
 8.912516e+00     3.284185e-25
 1.000000e+01     3.716830e-25
 1.122019e+01     4.215796e-25
 1.258925e+01     4.785707e-25
 1.412538e+01     5.429805e-25
 1.584894e+01     6.148658e-25
 1.778279e+01     6.942674e-25
 1.995263e+01     7.790254e-25
 2.238721e+01     8.587508e-25
 2.511887e+01     9.505580e-25
 2.818385e+01     1.037135e-24
 3.162278e+01     1.107909e-24
 3.548135e+01     1.171128e-24
 3.981071e+01     1.221450e-24
 4.466837e+01     1.244741e-24
 5.011876e+01     1.255451e-24
 5.623413e+01     1.251134e-24
 6.309576e+01     1.239945e-24
 7.079456e+01     1.223246e-24
 7.943284e+01     1.208957e-24
 8.912515e+01     1.196092e-24
 1.000000e+02     1.186006e-24
 1.120000e+02     1.176743e-24
 1.250000e+02     1.166124e-24
 1.400000e+02     1.152045e-24
 1.550000e+02     1.136313e-24
 1.650000e+02     1.125098e-24
 1.750000e+02     1.113684e-24
 1.850000e+02     1.103748e-24
 1.900000e+02     1.101808e-24
 1.950000e+02     1.105454e-24
 2.000000e+02     1.123016e-24
 2.050000e+02     1.172157e-24
 2.100000e+02     1.288059e-24
 2.150000e+02     1.542266e-24
 2.180000e+02     1.813798e-24
 2.210000e+02     2.229296e-24
 2.240000e+02     2.856156e-24
 2.260000e+02     3.438121e-24
 2.270000e+02     3.791670e-24
 2.275000e+02     3.986323e-24
 2.278400e+02     4.126637e-24
 2.380000e+02     1.714723e-23
 2.500000e+02     3.101401e-23
 2.700000e+02     4.677349e-23
 2.900000e+02     5.779336e-23
 3.035000e+02     6.373174e-23
 3.037800e+02     1.253951e-22
 3.045000e+02     1.231208e-22
 3.060000e+02     1.195326e-22
 3.080000e+02     1.147759e-22
 3.100000e+02     1.106784e-22
 3.120000e+02     1.067175e-22
 3.150000e+02     1.018125e-22
 3.200000e+02     9.518053e-23
 3.250000e+02     9.014031e-23
 3.300000e+02     8.664499e-23
 3.400000e+02     8.295141e-23
 3.600000e+02     8.299057e-23
 3.800000e+02     8.709286e-23
 4.050000e+02     9.354287e-23
 4.250000e+02     9.895557e-23
 4.500000e+02     1.056212e-22
 4.650000e+02     1.096389e-22
 4.750000e+02     1.123887e-22
 4.820000e+02     1.142501e-22
 4.870000e+02     1.155200e-22
 4.910000e+02     1.166081e-22
 4.950000e+02     1.177114e-22
 4.980000e+02     1.184821e-22
 5.000000e+02     1.189860e-22
 5.020000e+02     1.195711e-22
 5.039800e+02     1.200809e-22
 5.100000e+02     1.244007e-22
 5.250000e+02     1.332023e-22
 5.600000e+02     1.487452e-22
 6.000000e+02     1.631138e-22
 6.500000e+02     1.794833e-22
 7.000000e+02     1.972452e-22
 7.500000e+02     2.188064e-22
 8.000000e+02     2.466006e-22
 8.300000e+02     2.673112e-22
 8.600000e+02     2.922256e-22
 8.800000e+02     3.114017e-22
 8.900000e+02     3.220432e-22
 8.960000e+02     3.285985e-22
 9.000000e+02     3.331549e-22
 9.030000e+02     3.365947e-22
 9.060000e+02     3.402226e-22
 9.090000e+02     3.437433e-22
 9.117800e+02     3.472090e-22
 9.300000e+02     8.391992e-22
 9.500000e+02     1.457087e-21
 9.750000e+02     2.563539e-21
 9.900000e+02     3.075796e-21
 1.005000e+03     3.702145e-21
 1.025000e+03     4.805826e-21
 1.045000e+03     5.757979e-21
 1.065000e+03     7.091928e-21
 1.085000e+03     8.433192e-21
 1.105000e+03     9.744002e-21
 1.125000e+03     1.116243e-20
 1.145000e+03     1.242914e-20
 1.165000e+03     1.387044e-20
 1.185000e+03     1.510529e-20
 1.205000e+03     1.634755e-20
 1.215600e+03     1.694775e-20
 1.215670e+03     1.827374e-20
 1.216000e+03     1.828641e-20
 1.218000e+03     1.835555e-20
 1.221000e+03     1.843894e-20
 1.225000e+03     1.853868e-20
 1.230000e+03     1.870551e-20
 1.240000e+03     1.917718e-20
 1.250000e+03     1.973064e-20
 1.265000e+03     2.078409e-20
 1.285000e+03     2.213859e-20
 1.305000e+03     2.361864e-20
 1.325000e+03     2.492934e-20
 1.345000e+03     2.633791e-20
 1.365000e+03     2.766889e-20
 1.385000e+03     2.904193e-20
 1.405000e+03     3.022354e-20
 1.425000e+03     3.128804e-20
 1.442000e+03     3.227641e-20
 1.455000e+03     3.303462e-20
 1.475000e+03     3.426131e-20
 1.517000e+03     3.626747e-20
 1.595000e+03     3.939788e-20
 1.672000e+03     4.215766e-20
 1.745000e+03     4.449417e-20
 1.825000e+03     4.671746e-20
 1.905000e+03     4.831320e-20
 1.984000e+03     4.963543e-20
 2.065000e+03     5.063118e-20
 2.135000e+03     5.111397e-20
 2.215000e+03     5.164693e-20
 2.295000e+03     5.201491e-20
 2.375000e+03     5.238810e-20
 2.455000e+03     5.282130e-20
 2.525000e+03     5.315773e-20
 2.605000e+03     5.365908e-20
 2.685000e+03     5.443162e-20
 2.765000e+03     5.492043e-20
 2.845000e+03     5.528432e-20
 2.950000e+03     5.594719e-20
 3.110000e+03     5.689271e-20
 3.270000e+03     5.761698e-20
 3.430000e+03     5.821283e-20
 3.590000e+03     5.869373e-20
 3.730000e+03     5.954046e-20
 3.890000e+03     6.330078e-20
 4.050000e+03     6.735619e-20
 4.210000e+03     7.302742e-20
 4.370000e+03     7.785689e-20
 4.530000e+03     8.236816e-20
 4.690000e+03     8.653008e-20
 4.850000e+03     8.954295e-20
 5.010000e+03     9.233197e-20
 5.170000e+03     9.475726e-20
 5.330000e+03     9.703792e-20
 5.490000e+03     9.910461e-20
 5.650000e+03     1.010702e-19
 5.810000e+03     1.029952e-19
 5.970000e+03     1.044771e-19
 6.130000e+03     1.059665e-19
 6.290000e+03     1.072534e-19
 6.450000e+03     1.083972e-19
 6.610000e+03     1.094273e-19
 6.770000e+03     1.105086e-19
 6.930000e+03     1.114600e-19
 7.090000e+03     1.122866e-19
 7.250000e+03     1.130417e-19
 7.410000e+03     1.137670e-19
 7.570000e+03     1.145133e-19
 7.730000e+03     1.153271e-19
 7.890000e+03     1.160723e-19
 8.050000e+03     1.167241e-19
 8.210000e+03     1.173909e-19
 8.370000e+03     1.180214e-19
 8.530000e+03     1.186023e-19
 8.690000e+03     1.192172e-19
 8.850000e+03     1.200267e-19
 9.010000e+03     1.207601e-19
 9.170000e+03     1.214348e-19
 9.330000e+03     1.223488e-19
 9.490000e+03     1.232363e-19
 9.650000e+03     1.239651e-19
 9.810000e+03     1.247375e-19
 9.970000e+03     1.255002e-19
 1.050000e+04     1.273620e-19
 1.150000e+04     1.290488e-19
 1.250000e+04     1.299227e-19
 1.350000e+04     1.303630e-19
 1.450000e+04     1.308737e-19
 1.550000e+04     1.321815e-19
 1.650000e+04     1.330341e-19
 1.750000e+04     1.324760e-19
 1.850000e+04     1.304788e-19
 1.950000e+04     1.273216e-19
 2.050000e+04     1.238676e-19
 2.150000e+04     1.201698e-19
 2.250000e+04     1.161304e-19
 2.350000e+04     1.110737e-19
 2.450000e+04     1.053768e-19
 2.550000e+04     1.005751e-19
 2.650000e+04     9.602487e-20
 2.750000e+04     9.226605e-20
 2.850000e+04     8.890271e-20
 2.950000e+04     8.583679e-20
 3.050000e+04     8.301168e-20
 3.150000e+04     8.040345e-20
 3.250000e+04     7.797713e-20
 3.350000e+04     7.572025e-20
 3.450000e+04     7.363746e-20
 3.550000e+04     7.173832e-20
 3.650000e+04     6.999443e-20
 3.750000e+04     6.841494e-20
 3.850000e+04     6.701527e-20
 3.950000e+04     6.584251e-20
 4.050000e+04     6.490398e-20
 4.150000e+04     6.384243e-20
 4.250000e+04     6.270263e-20
 4.350000e+04     6.175339e-20
 4.450000e+04     6.097927e-20
 4.550000e+04     6.027809e-20
 4.650000e+04     5.964266e-20
 4.750000e+04     5.915814e-20
 4.850000e+04     5.893154e-20
 4.950000e+04     5.904035e-20
 5.050000e+04     5.950856e-20
 5.150000e+04     6.034317e-20
 5.250000e+04     6.155008e-20
 5.350000e+04     6.313836e-20
 5.450000e+04     6.531714e-20
 5.550000e+04     6.822589e-20
 5.650000e+04     7.104396e-20
 5.750000e+04     7.387826e-20
 5.850000e+04     7.603974e-20
 5.950000e+04     7.780875e-20
 6.050000e+04     8.064931e-20
 6.150000e+04     8.618808e-20
 6.250000e+04     9.962143e-20
 6.350000e+04     1.088844e-19
 6.450000e+04     1.131846e-19
 6.550000e+04     1.171221e-19
 6.650010e+04     1.212164e-19
 6.750010e+04     1.256491e-19
 6.850010e+04     1.297082e-19
 6.950010e+04     1.349389e-19
 7.020000e+04     1.397364e-19
 7.100000e+04     1.442848e-19
 7.180000e+04     1.485231e-19
 7.260000e+04     1.527930e-19
 7.340000e+04     1.580461e-19
 7.420000e+04     1.656601e-19
 7.500000e+04     1.762183e-19
 7.580000e+04     1.895275e-19
 7.660000e+04     2.044028e-19
 7.740000e+04     2.186823e-19
 7.820000e+04     2.323021e-19
 7.900000e+04     2.446193e-19
 7.980000e+04     2.545749e-19
 8.060000e+04     2.621325e-19
 8.140000e+04     2.676864e-19
 8.220000e+04     2.721950e-19
 8.300000e+04     2.759700e-19
 8.380000e+04     2.792314e-19
 8.460000e+04     2.823190e-19
 8.540000e+04     2.856581e-19
 8.620000e+04     2.893080e-19
 8.700000e+04     2.922024e-19
 8.780000e+04     2.934726e-19
 8.860000e+04     2.934928e-19
 8.940000e+04     2.930900e-19
 9.020000e+04     2.923565e-19
 9.100000e+04     2.912834e-19
 9.180000e+04     2.901421e-19
 9.260000e+04     2.888931e-19
 9.340000e+04     2.874591e-19
 9.420000e+04     2.860958e-19
 9.500000e+04     2.848495e-19
 9.580000e+04     2.836398e-19
 9.660000e+04     2.829060e-19
 9.740000e+04     2.822924e-19
 9.820000e+04     2.811501e-19
 9.900000e+04     2.796373e-19
 9.980000e+04     2.780642e-19
 1.006000e+05     2.764190e-19
 1.020000e+05     2.733229e-19
 1.040000e+05     2.679930e-19
 1.060000e+05     2.632430e-19
 1.080000e+05     2.591029e-19
 1.100000e+05     2.566040e-19
 1.120000e+05     2.626890e-19
 1.140000e+05     2.795902e-19
 1.160000e+05     2.831833e-19
 1.180000e+05     2.840250e-19
 1.200000e+05     2.862755e-19
 1.220000e+05     2.908113e-19
 1.240000e+05     2.983128e-19
 1.260000e+05     3.093265e-19
 1.280000e+05     3.297874e-19
 1.300000e+05     3.491697e-19
 1.320000e+05     3.508374e-19
 1.340000e+05     3.586635e-19
 1.360000e+05     3.652589e-19
 1.380000e+05     3.724982e-19
 1.400000e+05     3.793870e-19
 1.420000e+05     3.874154e-19
 1.440000e+05     3.954069e-19
 1.460000e+05     4.027522e-19
 1.480000e+05     4.097971e-19
 1.500000e+05     4.162285e-19
 1.520000e+05     4.218032e-19
 1.540000e+05     4.269754e-19
 1.560000e+05     4.346079e-19
 1.580000e+05     4.412266e-19
 1.600000e+05     4.456880e-19
 1.620000e+05     4.512013e-19
 1.640000e+05     4.577736e-19
 1.660000e+05     4.666383e-19
 1.680000e+05     4.730558e-19
 1.700000e+05     4.808348e-19
 1.720000e+05     4.899044e-19
 1.740000e+05     4.953310e-19
 1.760000e+05     5.003969e-19
 1.780000e+05     5.040407e-19
 1.800000e+05     5.087240e-19
 1.820000e+05     5.126109e-19
 1.840000e+05     5.172558e-19
 1.860000e+05     5.224083e-19
 1.880000e+05     5.326580e-19
 1.900000e+05     5.396112e-19
 1.920000e+05     5.471511e-19
 1.940000e+05     5.557570e-19
 1.960000e+05     5.661001e-19
 1.980000e+05     5.780244e-19
 2.000000e+05     5.907919e-19
 2.020000e+05     6.049590e-19
 2.040000e+05     6.205570e-19
 2.060000e+05     6.360044e-19
 2.080000e+05     6.516552e-19
 2.100000e+05     6.695064e-19
 2.120000e+05     6.871504e-19
 2.140000e+05     7.046223e-19
 2.160000e+05     7.243203e-19
 2.180000e+05     7.449947e-19
 2.200000e+05     7.643959e-19
 2.220000e+05     7.847442e-19
 2.240000e+05     8.071767e-19
 2.260000e+05     8.290785e-19
 2.280000e+05     8.503808e-19
 2.300000e+05     8.734788e-19
 2.320000e+05     8.984220e-19
 2.340000e+05     9.237701e-19
 2.360000e+05     9.491321e-19
 2.380000e+05     9.762012e-19
 2.400000e+05     1.005424e-18
 2.420000e+05     1.035540e-18
 2.440000e+05     1.065773e-18
 2.460000e+05     1.097495e-18
 2.480000e+05     1.131211e-18
 2.500000e+05     1.165557e-18
 2.520000e+05     1.199587e-18
 2.540000e+05     1.234333e-18
 2.560000e+05     1.270739e-18
 2.580000e+05     1.308766e-18
 2.600000e+05     1.347513e-18
 2.620000e+05     1.386091e-18
 2.640000e+05     1.424879e-18
 2.660000e+05     1.464868e-18
 2.680000e+05     1.506826e-18
 2.700000e+05     1.548722e-18
 2.720000e+05     1.590168e-18
 2.740000e+05     1.631722e-18
 2.760000e+05     1.674710e-18
 2.780000e+05     1.719613e-18
 2.800000e+05     1.766584e-18
 2.820000e+05     1.815395e-18
 2.840000e+05     1.863984e-18
 2.860000e+05     1.912029e-18
 2.880000e+05     1.960847e-18
 2.900000e+05     2.012023e-18
 2.920000e+05     2.064536e-18
 2.940000e+05     2.117768e-18
 2.960000e+05     2.172742e-18
 2.980000e+05     2.228209e-18
 3.000000e+05     2.282966e-18
 3.020000e+05     2.339638e-18
 3.040000e+05     2.398148e-18
 3.060000e+05     2.457032e-18
 3.080000e+05     2.516515e-18
 3.100000e+05     2.576191e-18
 3.120000e+05     2.635470e-18
 3.140000e+05     2.696780e-18
 3.160000e+05     2.759214e-18
 3.180000e+05     2.822787e-18
 3.200000e+05     2.888736e-18
 3.220000e+05     2.954271e-18
 3.240000e+05     3.020645e-18
 3.260000e+05     3.089470e-18
 3.280000e+05     3.156727e-18
 3.300000e+05     3.224821e-18
 3.320000e+05     3.292077e-18
 3.340000e+05     3.368310e-18
 3.360000e+05     3.451818e-18
 3.380000e+05     3.528384e-18
 3.400000e+05     3.592426e-18
 3.420000e+05     3.660012e-18
 3.440000e+05     3.728254e-18
 3.460000e+05     3.794276e-18
 3.480000e+05     3.876564e-18
 3.500000e+05     3.966999e-18
 3.520000e+05     4.050127e-18
 3.540000e+05     4.125037e-18
 3.560000e+05     4.191316e-18
 3.580000e+05     4.255754e-18
 3.600000e+05     4.327886e-18
 3.620000e+05     4.400423e-18
 3.640000e+05     4.467825e-18
 3.660000e+05     4.536188e-18
 3.680000e+05     4.609173e-18
 3.700000e+05     4.681871e-18
 3.720000e+05     4.753597e-18
 3.740000e+05     4.827647e-18
 3.760000e+05     4.903947e-18
 3.780000e+05     4.979606e-18
 3.800000e+05     5.055687e-18
 3.820000e+05     5.134070e-18
 3.840000e+05     5.213506e-18
 3.860000e+05     5.292759e-18
 3.880000e+05     5.373147e-18
 3.900000e+05     5.455109e-18
 3.920000e+05     5.537483e-18
 4.320000e+05     7.257516e-18
 4.760000e+05     9.219962e-18
 5.250000e+05     1.135864e-17
 5.790000e+05     1.354258e-17
 6.390000e+05     1.567163e-17
 7.040000e+05     1.748159e-17
 7.760000e+05     1.882428e-17
 8.560000e+05     1.960019e-17
 9.430000e+05     1.979578e-17
 1.040000e+06     1.949370e-17
 1.147000e+06     1.880882e-17
 1.264000e+06     1.787727e-17
 1.394000e+06     1.680538e-17
 1.537000e+06     1.569083e-17
 1.694000e+06     1.458356e-17
 1.868000e+06     1.349566e-17
 2.059000e+06     1.243215e-17
 2.270000e+06     1.137276e-17
 2.503000e+06     1.030458e-17
 2.760000e+06     9.223546e-18
 3.043000e+06     8.138617e-18
 3.354000e+06     7.069140e-18
 3.698000e+06     6.032525e-18
