## EBL from Khaire & Srianand 2018; Q14 Model with alpha=-1.4 
## Column1:wavelength (Angstrom);  Column2:EBL specific intensity J_nu (erg/s/cm^2/Hz/Sr)
## ===========================================================================================
 1.000000e-08     8.802962e-39
 1.122019e-08     1.280747e-38
 1.258925e-08     1.829832e-38
 1.412538e-08     2.559957e-38
 1.584893e-08     3.510529e-38
 1.778279e-08     4.727539e-38
 1.995263e-08     6.263804e-38
 2.238721e-08     8.179655e-38
 2.511887e-08     1.054403e-37
 2.818382e-08     1.343569e-37
 3.162278e-08     1.694491e-37
 3.548135e-08     2.117521e-37
 3.981071e-08     2.624566e-37
 4.466837e-08     3.229349e-37
 5.011870e-08     3.947684e-37
 5.623413e-08     4.797871e-37
 6.309576e-08     5.801040e-37
 7.079456e-08     6.981644e-37
 7.943284e-08     8.368025e-37
 8.912505e-08     9.992962e-37
 1.000000e-07     1.189449e-36
 1.122019e-07     1.411665e-36
 1.258925e-07     1.671043e-36
 1.412538e-07     1.973507e-36
 1.584892e-07     2.325904e-36
 1.778279e-07     2.736193e-36
 1.995263e-07     3.213580e-36
 2.238721e-07     3.768737e-36
 2.511887e-07     4.414047e-36
 2.818382e-07     5.163842e-36
 3.162278e-07     6.034758e-36
 3.548136e-07     7.046055e-36
 3.981071e-07     8.220044e-36
 4.466837e-07     9.582627e-36
 5.011870e-07     1.116376e-35
 5.623413e-07     1.299823e-35
 6.309576e-07     1.512629e-35
 7.079456e-07     1.759458e-35
 7.943284e-07     2.045725e-35
 8.912505e-07     2.377690e-35
 1.000000e-06     2.762622e-35
 1.122019e-06     3.208936e-35
 1.258925e-06     3.726377e-35
 1.412538e-06     4.326260e-35
 1.584893e-06     5.021669e-35
 1.778279e-06     5.827789e-35
 1.995263e-06     6.762209e-35
 2.238721e-06     7.845294e-35
 2.511887e-06     9.100674e-35
 2.818382e-06     1.055570e-34
 3.162278e-06     1.224210e-34
 3.548136e-06     1.419662e-34
 3.981071e-06     1.646180e-34
 4.466837e-06     1.908704e-34
 5.011870e-06     2.212946e-34
 5.623413e-06     2.565538e-34
 6.309576e-06     2.974155e-34
 7.079456e-06     3.447687e-34
 7.943284e-06     3.996455e-34
 8.912505e-06     4.632392e-34
 1.000000e-05     5.369356e-34
 1.122019e-05     6.223380e-34
 1.258925e-05     7.213042e-34
 1.412538e-05     8.359905e-34
 1.584893e-05     9.688903e-34
 1.778279e-05     1.122897e-33
 1.995263e-05     1.301364e-33
 2.238721e-05     1.508171e-33
 2.511887e-05     1.747821e-33
 2.818382e-05     2.025527e-33
 3.162278e-05     2.347335e-33
 3.548135e-05     2.720244e-33
 3.981071e-05     3.152366e-33
 4.466837e-05     3.653111e-33
 5.011870e-05     4.233364e-33
 5.623413e-05     4.905761e-33
 6.309577e-05     5.684928e-33
 7.079457e-05     6.587805e-33
 7.943284e-05     7.634055e-33
 8.912505e-05     8.846424e-33
 1.000000e-04     1.025131e-32
 1.122018e-04     1.187925e-32
 1.258926e-04     1.376371e-32
 1.412538e-04     1.589853e-32
 1.584893e-04     1.835777e-32
 1.778279e-04     2.120873e-32
 1.995262e-04     2.452207e-32
 2.238722e-04     2.837815e-32
 2.511887e-04     3.287065e-32
 2.818383e-04     3.810984e-32
 3.162278e-04     4.422579e-32
 3.548134e-04     5.137205e-32
 3.981073e-04     5.973022e-32
 4.466837e-04     6.951505e-32
 5.011873e-04     8.098087e-32
 5.623413e-04     9.442897e-32
 6.309572e-04     1.102166e-31
 7.079460e-04     1.287675e-31
 7.943284e-04     1.505847e-31
 8.912510e-04     1.762657e-31
 1.000000e-03     2.065210e-31
 1.122018e-03     2.421947e-31
 1.258926e-03     2.842925e-31
 1.412538e-03     3.340099e-31
 1.584893e-03     3.927721e-31
 1.778279e-03     4.622774e-31
 1.995262e-03     5.445499e-31
 2.238722e-03     6.420045e-31
 2.511887e-03     7.575207e-31
 2.818383e-03     8.945378e-31
 3.162278e-03     1.057162e-30
 3.548133e-03     1.250297e-30
 3.981073e-03     1.479806e-30
 4.466837e-03     1.752696e-30
 5.011873e-03     2.077357e-30
 5.623413e-03     2.463861e-30
 6.309573e-03     2.924369e-30
 7.079460e-03     3.473708e-30
 7.943284e-03     4.130211e-30
 8.912510e-03     4.916942e-30
 1.000000e-02     5.863358e-30
 1.122019e-02     7.007437e-30
 1.258925e-02     8.398139e-30
 1.412538e-02     1.009817e-29
 1.584894e-02     1.218653e-29
 1.778279e-02     1.476101e-29
 1.995263e-02     1.794036e-29
 2.238721e-02     2.186591e-29
 2.511887e-02     2.670350e-29
 2.818385e-02     3.264507e-29
 3.162277e-02     3.991100e-29
 3.548136e-02     4.875370e-29
 3.981071e-02     5.946129e-29
 4.466837e-02     7.236461e-29
 5.011876e-02     8.784427e-29
 5.623413e-02     1.063410e-28
 6.309576e-02     1.283686e-28
 7.079456e-02     1.545284e-28
 7.943284e-02     1.855286e-28
 8.912515e-02     2.222050e-28
 1.000000e-01     2.655475e-28
 1.122019e-01     3.167632e-28
 1.258925e-01     3.757679e-28
 1.412538e-01     4.406710e-28
 1.584894e-01     5.105236e-28
 1.778279e-01     5.847255e-28
 1.995263e-01     6.628145e-28
 2.238721e-01     7.443983e-28
 2.511887e-01     8.291468e-28
 2.818385e-01     9.167888e-28
 3.162278e-01     1.006299e-27
 3.548135e-01     1.087510e-27
 3.981071e-01     1.168271e-27
 4.466837e-01     1.251401e-27
 5.011876e-01     1.337957e-27
 5.623413e-01     1.428523e-27
 6.309576e-01     1.523575e-27
 7.079456e-01     1.623857e-27
 7.943284e-01     1.730173e-27
 8.912515e-01     1.843512e-27
 1.000000e+00     1.965074e-27
 1.122019e+00     2.096288e-27
 1.258925e+00     2.238836e-27
 1.412538e+00     2.394685e-27
 1.584894e+00     2.566102e-27
 1.778279e+00     2.755683e-27
 1.995263e+00     2.966356e-27
 2.238721e+00     3.201344e-27
 2.511887e+00     3.464095e-27
 2.818385e+00     3.758093e-27
 3.162278e+00     4.086524e-27
 3.548136e+00     4.451716e-27
 3.981071e+00     4.854191e-27
 4.466837e+00     5.291317e-27
 5.011876e+00     5.755384e-27
 5.623413e+00     6.231356e-27
 6.309576e+00     6.692058e-27
 7.079456e+00     7.042705e-27
 7.943284e+00     7.354620e-27
 8.912516e+00     7.556944e-27
 1.000000e+01     7.553630e-27
 1.122019e+01     7.381350e-27
 1.258925e+01     7.025710e-27
 1.412538e+01     6.518828e-27
 1.584894e+01     5.899605e-27
 1.778279e+01     5.221684e-27
 1.995263e+01     4.535218e-27
 2.238721e+01     3.879814e-27
 2.511887e+01     3.281831e-27
 2.818385e+01     2.756055e-27
 3.162278e+01     2.303245e-27
 3.548135e+01     1.921100e-27
 3.981071e+01     1.600719e-27
 4.466837e+01     1.334337e-27
 5.011876e+01     1.113694e-27
 5.623413e+01     9.315750e-28
 6.309576e+01     7.808499e-28
 7.079456e+01     6.570595e-28
 7.943284e+01     5.548614e-28
 8.912515e+01     4.706197e-28
 1.000000e+02     4.011446e-28
 1.120000e+02     3.447833e-28
 1.250000e+02     2.996007e-28
 1.400000e+02     2.609751e-28
 1.550000e+02     2.322867e-28
 1.650000e+02     2.170195e-28
 1.750000e+02     2.042802e-28
 1.850000e+02     1.939939e-28
 1.900000e+02     1.905744e-28
 1.950000e+02     1.896571e-28
 2.000000e+02     1.939568e-28
 2.050000e+02     2.092342e-28
 2.100000e+02     2.471691e-28
 2.150000e+02     3.305571e-28
 2.180000e+02     4.190268e-28
 2.210000e+02     5.533017e-28
 2.240000e+02     7.541702e-28
 2.260000e+02     9.390862e-28
 2.270000e+02     1.050870e-27
 2.275000e+02     1.113215e-27
 2.278400e+02     1.157278e-27
 2.380000e+02     1.445086e-23
 2.500000e+02     2.069622e-23
 2.700000e+02     2.369080e-23
 2.900000e+02     2.568442e-23
 3.035000e+02     2.695799e-23
 3.037800e+02     2.945086e-23
 3.045000e+02     2.920278e-23
 3.060000e+02     2.881147e-23
 3.080000e+02     2.849051e-23
 3.100000e+02     2.831377e-23
 3.120000e+02     2.824535e-23
 3.150000e+02     2.829564e-23
 3.200000e+02     2.857675e-23
 3.250000e+02     2.897341e-23
 3.300000e+02     2.940360e-23
 3.400000e+02     3.030237e-23
 3.600000e+02     3.208941e-23
 3.800000e+02     3.385260e-23
 4.050000e+02     3.600711e-23
 4.250000e+02     3.770102e-23
 4.500000e+02     3.977057e-23
 4.650000e+02     4.100738e-23
 4.750000e+02     4.182020e-23
 4.820000e+02     4.238315e-23
 4.870000e+02     4.279025e-23
 4.910000e+02     4.310528e-23
 4.950000e+02     4.342602e-23
 4.980000e+02     4.366403e-23
 5.000000e+02     4.382462e-23
 5.020000e+02     4.398402e-23
 5.039800e+02     4.413892e-23
 5.100000e+02     5.059709e-23
 5.250000e+02     5.733501e-23
 5.600000e+02     6.152691e-23
 6.000000e+02     6.533387e-23
 6.500000e+02     7.051677e-23
 7.000000e+02     7.697359e-23
 7.500000e+02     8.567974e-23
 8.000000e+02     9.768558e-23
 8.300000e+02     1.070615e-22
 8.600000e+02     1.184524e-22
 8.800000e+02     1.272832e-22
 8.900000e+02     1.321143e-22
 8.960000e+02     1.351484e-22
 9.000000e+02     1.372093e-22
 9.030000e+02     1.388012e-22
 9.060000e+02     1.404211e-22
 9.090000e+02     1.420700e-22
 9.117800e+02     1.436273e-22
 9.300000e+02     9.280191e-22
 9.500000e+02     1.893035e-21
 9.750000e+02     3.806685e-21
 9.900000e+02     4.546368e-21
 1.005000e+03     5.641847e-21
 1.025000e+03     7.258732e-21
 1.045000e+03     8.599206e-21
 1.065000e+03     1.041107e-20
 1.085000e+03     1.224061e-20
 1.105000e+03     1.385827e-20
 1.125000e+03     1.563994e-20
 1.145000e+03     1.710801e-20
 1.165000e+03     1.879393e-20
 1.185000e+03     2.013509e-20
 1.205000e+03     2.151049e-20
 1.215600e+03     2.205535e-20
 1.215670e+03     2.461400e-20
 1.216000e+03     2.463291e-20
 1.218000e+03     2.474697e-20
 1.221000e+03     2.490429e-20
 1.225000e+03     2.506176e-20
 1.230000e+03     2.523211e-20
 1.240000e+03     2.565786e-20
 1.250000e+03     2.611771e-20
 1.265000e+03     2.719609e-20
 1.285000e+03     2.868941e-20
 1.305000e+03     2.999072e-20
 1.325000e+03     3.131444e-20
 1.345000e+03     3.254221e-20
 1.365000e+03     3.373765e-20
 1.385000e+03     3.495728e-20
 1.405000e+03     3.592365e-20
 1.425000e+03     3.671083e-20
 1.442000e+03     3.747982e-20
 1.455000e+03     3.830445e-20
 1.475000e+03     3.936501e-20
 1.517000e+03     4.082307e-20
 1.595000e+03     4.293197e-20
 1.672000e+03     4.468148e-20
 1.745000e+03     4.611784e-20
 1.825000e+03     4.742764e-20
 1.905000e+03     4.828384e-20
 1.984000e+03     4.881528e-20
 2.065000e+03     4.912379e-20
 2.135000e+03     4.915892e-20
 2.215000e+03     4.908957e-20
 2.295000e+03     4.893788e-20
 2.375000e+03     4.858417e-20
 2.455000e+03     4.834977e-20
 2.525000e+03     4.807593e-20
 2.605000e+03     4.788158e-20
 2.685000e+03     4.784440e-20
 2.765000e+03     4.769563e-20
 2.845000e+03     4.709572e-20
 2.950000e+03     4.696417e-20
 3.110000e+03     4.677720e-20
 3.270000e+03     4.645517e-20
 3.430000e+03     4.612673e-20
 3.590000e+03     4.580811e-20
 3.730000e+03     4.586957e-20
 3.890000e+03     4.830529e-20
 4.050000e+03     5.034773e-20
 4.210000e+03     5.397892e-20
 4.370000e+03     5.687619e-20
 4.530000e+03     5.940091e-20
 4.690000e+03     6.164191e-20
 4.850000e+03     6.319387e-20
 5.010000e+03     6.437394e-20
 5.170000e+03     6.541567e-20
 5.330000e+03     6.633989e-20
 5.490000e+03     6.715521e-20
 5.650000e+03     6.793539e-20
 5.810000e+03     6.870398e-20
 5.970000e+03     6.923105e-20
 6.130000e+03     6.978989e-20
 6.290000e+03     7.017385e-20
 6.450000e+03     7.053503e-20
 6.610000e+03     7.084465e-20
 6.770000e+03     7.119814e-20
 6.930000e+03     7.148748e-20
 7.090000e+03     7.171533e-20
 7.250000e+03     7.190149e-20
 7.410000e+03     7.210029e-20
 7.570000e+03     7.232057e-20
 7.730000e+03     7.262560e-20
 7.890000e+03     7.286458e-20
 8.050000e+03     7.305972e-20
 8.210000e+03     7.328776e-20
 8.370000e+03     7.348165e-20
 8.530000e+03     7.367391e-20
 8.690000e+03     7.390037e-20
 8.850000e+03     7.425115e-20
 9.010000e+03     7.456377e-20
 9.170000e+03     7.484822e-20
 9.330000e+03     7.530410e-20
 9.490000e+03     7.563665e-20
 9.650000e+03     7.597158e-20
 9.810000e+03     7.626052e-20
 9.970000e+03     7.661116e-20
 1.050000e+04     7.732398e-20
 1.150000e+04     7.761589e-20
 1.250000e+04     7.759078e-20
 1.350000e+04     7.739478e-20
 1.450000e+04     7.746269e-20
 1.550000e+04     7.811181e-20
 1.650000e+04     7.796816e-20
 1.750000e+04     7.686811e-20
 1.850000e+04     7.553166e-20
 1.950000e+04     7.439940e-20
 2.050000e+04     7.345732e-20
 2.150000e+04     7.274430e-20
 2.250000e+04     7.229370e-20
 2.350000e+04     7.213576e-20
 2.450000e+04     7.229772e-20
 2.550000e+04     7.280288e-20
 2.650000e+04     7.366948e-20
 2.750000e+04     7.491225e-20
 2.850000e+04     7.654327e-20
 2.950000e+04     7.857082e-20
 3.050000e+04     8.098715e-20
 3.150000e+04     8.349618e-20
 3.250000e+04     8.523789e-20
 3.350000e+04     8.682758e-20
 3.450000e+04     8.885465e-20
 3.550000e+04     9.090725e-20
 3.650000e+04     9.299162e-20
 3.750000e+04     9.512843e-20
 3.850000e+04     9.729734e-20
 3.950000e+04     9.948443e-20
 4.050000e+04     1.016834e-19
 4.150000e+04     1.038976e-19
 4.250000e+04     1.061319e-19
 4.350000e+04     1.083784e-19
 4.450000e+04     1.106359e-19
 4.550000e+04     1.129071e-19
 4.650000e+04     1.151914e-19
 4.750000e+04     1.174853e-19
 4.850000e+04     1.197855e-19
 4.950000e+04     1.220908e-19
 5.050000e+04     1.244001e-19
 5.150000e+04     1.267131e-19
 5.250000e+04     1.290294e-19
 5.350000e+04     1.296553e-19
 5.450000e+04     1.295625e-19
 5.550000e+04     1.309920e-19
 5.650000e+04     1.328899e-19
 5.750000e+04     1.358347e-19
 5.850000e+04     1.384223e-19
 5.950000e+04     1.407117e-19
 6.050000e+04     1.450181e-19
 6.150000e+04     1.573645e-19
 6.250000e+04     1.786754e-19
 6.350000e+04     1.905765e-19
 6.450000e+04     1.933054e-19
 6.550000e+04     1.955573e-19
 6.650010e+04     1.975800e-19
 6.750010e+04     2.005949e-19
 6.850010e+04     2.024536e-19
 6.950010e+04     2.056673e-19
 7.020000e+04     2.084616e-19
 7.100000e+04     2.112947e-19
 7.180000e+04     2.142597e-19
 7.260000e+04     2.186109e-19
 7.340000e+04     2.252877e-19
 7.420000e+04     2.340335e-19
 7.500000e+04     2.464235e-19
 7.580000e+04     2.628536e-19
 7.660000e+04     2.807397e-19
 7.740000e+04     2.968072e-19
 7.820000e+04     3.106065e-19
 7.900000e+04     3.227122e-19
 7.980000e+04     3.321740e-19
 8.060000e+04     3.382679e-19
 8.140000e+04     3.419047e-19
 8.220000e+04     3.425841e-19
 8.300000e+04     3.418749e-19
 8.380000e+04     3.413075e-19
 8.460000e+04     3.409208e-19
 8.540000e+04     3.407236e-19
 8.620000e+04     3.418575e-19
 8.700000e+04     3.433740e-19
 8.780000e+04     3.425030e-19
 8.860000e+04     3.391867e-19
 8.940000e+04     3.344545e-19
 9.020000e+04     3.290682e-19
 9.100000e+04     3.234832e-19
 9.180000e+04     3.172884e-19
 9.260000e+04     3.107941e-19
 9.340000e+04     3.042747e-19
 9.420000e+04     2.979980e-19
 9.500000e+04     2.919256e-19
 9.580000e+04     2.862105e-19
 9.660000e+04     2.819464e-19
 9.740000e+04     2.780577e-19
 9.820000e+04     2.731666e-19
 9.900000e+04     2.681936e-19
 9.980000e+04     2.629512e-19
 1.006000e+05     2.584851e-19
 1.020000e+05     2.513119e-19
 1.040000e+05     2.429387e-19
 1.060000e+05     2.388806e-19
 1.080000e+05     2.370342e-19
 1.100000e+05     2.365342e-19
 1.120000e+05     2.538439e-19
 1.140000e+05     2.915190e-19
 1.160000e+05     2.981491e-19
 1.180000e+05     3.019432e-19
 1.200000e+05     3.049380e-19
 1.220000e+05     3.084250e-19
 1.240000e+05     3.121892e-19
 1.260000e+05     3.196532e-19
 1.280000e+05     3.344152e-19
 1.300000e+05     3.432118e-19
 1.320000e+05     3.349180e-19
 1.340000e+05     3.325147e-19
 1.360000e+05     3.265717e-19
 1.380000e+05     3.224313e-19
 1.400000e+05     3.147734e-19
 1.420000e+05     3.114128e-19
 1.440000e+05     3.052508e-19
 1.460000e+05     3.001221e-19
 1.480000e+05     2.936375e-19
 1.500000e+05     2.888961e-19
 1.520000e+05     2.839809e-19
 1.540000e+05     2.803743e-19
 1.560000e+05     2.814485e-19
 1.580000e+05     2.809809e-19
 1.600000e+05     2.799099e-19
 1.620000e+05     2.792515e-19
 1.640000e+05     2.834681e-19
 1.660000e+05     2.904060e-19
 1.680000e+05     2.963498e-19
 1.700000e+05     3.038981e-19
 1.720000e+05     3.147671e-19
 1.740000e+05     3.216476e-19
 1.760000e+05     3.236126e-19
 1.780000e+05     3.258003e-19
 1.800000e+05     3.255225e-19
 1.820000e+05     3.251150e-19
 1.840000e+05     3.241723e-19
 1.860000e+05     3.239362e-19
 1.880000e+05     3.320195e-19
 1.900000e+05     3.346763e-19
 1.920000e+05     3.350608e-19
 1.940000e+05     3.338238e-19
 1.960000e+05     3.343366e-19
 1.980000e+05     3.346643e-19
 2.000000e+05     3.347977e-19
 2.020000e+05     3.362255e-19
 2.040000e+05     3.373482e-19
 2.060000e+05     3.385828e-19
 2.080000e+05     3.405792e-19
 2.100000e+05     3.424426e-19
 2.120000e+05     3.446341e-19
 2.140000e+05     3.472023e-19
 2.160000e+05     3.497674e-19
 2.180000e+05     3.526325e-19
 2.200000e+05     3.557149e-19
 2.220000e+05     3.589707e-19
 2.240000e+05     3.625333e-19
 2.260000e+05     3.662448e-19
 2.280000e+05     3.701405e-19
 2.300000e+05     3.741500e-19
 2.320000e+05     3.782793e-19
 2.340000e+05     3.825483e-19
 2.360000e+05     3.869984e-19
 2.380000e+05     3.916095e-19
 2.400000e+05     3.963523e-19
 2.420000e+05     4.012370e-19
 2.440000e+05     4.062236e-19
 2.460000e+05     4.113884e-19
 2.480000e+05     4.166656e-19
 2.500000e+05     4.220433e-19
 2.520000e+05     4.275071e-19
 2.540000e+05     4.330666e-19
 2.560000e+05     4.388941e-19
 2.580000e+05     4.457114e-19
 2.600000e+05     4.537350e-19
 2.620000e+05     4.610856e-19
 2.640000e+05     4.674517e-19
 2.660000e+05     4.735002e-19
 2.680000e+05     4.795818e-19
 2.700000e+05     4.860916e-19
 2.720000e+05     4.926746e-19
 2.740000e+05     4.992214e-19
 2.760000e+05     5.059384e-19
 2.780000e+05     5.130157e-19
 2.800000e+05     5.203229e-19
 2.820000e+05     5.285172e-19
 2.840000e+05     5.370128e-19
 2.860000e+05     5.447992e-19
 2.880000e+05     5.523075e-19
 2.900000e+05     5.598154e-19
 2.920000e+05     5.674952e-19
 2.940000e+05     5.754729e-19
 2.960000e+05     5.835430e-19
 2.980000e+05     5.916485e-19
 3.000000e+05     6.000290e-19
 3.020000e+05     6.086028e-19
 3.040000e+05     6.173727e-19
 3.060000e+05     6.262184e-19
 3.080000e+05     6.353141e-19
 3.100000e+05     6.446417e-19
 3.120000e+05     6.541570e-19
 3.140000e+05     6.638455e-19
 3.160000e+05     6.737722e-19
 3.180000e+05     6.839856e-19
 3.200000e+05     6.944761e-19
 3.220000e+05     7.053009e-19
 3.240000e+05     7.165280e-19
 3.260000e+05     7.282358e-19
 3.280000e+05     7.404146e-19
 3.300000e+05     7.530097e-19
 3.320000e+05     7.663372e-19
 3.340000e+05     7.846499e-19
 3.360000e+05     8.101454e-19
 3.380000e+05     8.286319e-19
 3.400000e+05     8.407025e-19
 3.420000e+05     8.523100e-19
 3.440000e+05     8.627762e-19
 3.460000e+05     8.750873e-19
 3.480000e+05     9.011875e-19
 3.500000e+05     9.332207e-19
 3.520000e+05     9.514296e-19
 3.540000e+05     9.623607e-19
 3.560000e+05     9.724050e-19
 3.580000e+05     9.830887e-19
 3.600000e+05     9.943030e-19
 3.620000e+05     1.005467e-18
 3.640000e+05     1.016291e-18
 3.660000e+05     1.027988e-18
 3.680000e+05     1.039126e-18
 3.700000e+05     1.051162e-18
 3.720000e+05     1.063904e-18
 3.740000e+05     1.076323e-18
 3.760000e+05     1.089628e-18
 3.780000e+05     1.101971e-18
 3.800000e+05     1.114719e-18
 3.820000e+05     1.128242e-18
 3.840000e+05     1.141756e-18
 3.860000e+05     1.155521e-18
 3.880000e+05     1.168659e-18
 3.900000e+05     1.181843e-18
 3.920000e+05     1.195830e-18
 4.320000e+05     1.493615e-18
 4.760000e+05     1.846733e-18
 5.250000e+05     2.257195e-18
 5.790000e+05     2.720161e-18
 6.390000e+05     3.241787e-18
 7.040000e+05     3.814433e-18
 7.760000e+05     4.647949e-18
 8.560000e+05     5.799516e-18
 9.430000e+05     7.248376e-18
 1.040000e+06     8.967582e-18
 1.147000e+06     1.082221e-17
 1.264000e+06     1.261802e-17
 1.394000e+06     1.417449e-17
 1.537000e+06     1.529232e-17
 1.694000e+06     1.585011e-17
 1.868000e+06     1.580688e-17
 2.059000e+06     1.519816e-17
 2.270000e+06     1.411963e-17
 2.503000e+06     1.270544e-17
 2.760000e+06     1.110117e-17
 3.043000e+06     9.442882e-18
 3.354000e+06     7.839637e-18
 3.698000e+06     6.358465e-18
