## EBL from Khaire & Srianand 2018; Q15 Model with alpha=-1.5 
## Column1:wavelength (Angstrom);  Column2:EBL specific intensity J_nu (erg/s/cm^2/Hz/Sr)
## ===========================================================================================
 1.000000e-08     8.925996e-37
 1.122019e-08     1.298741e-36
 1.258925e-08     1.865103e-36
 1.412538e-08     2.630823e-36
 1.584893e-08     3.641525e-36
 1.778279e-08     4.950054e-36
 1.995263e-08     6.617222e-36
 2.238721e-08     8.712707e-36
 2.511887e-08     1.131630e-35
 2.818382e-08     1.451918e-35
 3.162278e-08     1.842586e-35
 3.548135e-08     2.315606e-35
 3.981071e-08     2.884732e-35
 4.466837e-08     3.565798e-35
 5.011870e-08     4.377034e-35
 5.623413e-08     5.339511e-35
 6.309576e-08     6.477549e-35
 7.079456e-08     7.819271e-35
 7.943284e-08     9.397263e-35
 8.912505e-08     1.124919e-34
 1.000000e-07     1.341878e-34
 1.122019e-07     1.595659e-34
 1.258925e-07     1.892125e-34
 1.412538e-07     2.238076e-34
 1.584892e-07     2.641379e-34
 1.778279e-07     3.111176e-34
 1.995263e-07     3.658040e-34
 2.238721e-07     4.294232e-34
 2.511887e-07     5.033973e-34
 2.818382e-07     5.893728e-34
 3.162278e-07     6.892605e-34
 3.548136e-07     8.052728e-34
 3.981071e-07     9.399727e-34
 4.466837e-07     1.096336e-33
 5.011870e-07     1.277802e-33
 5.623413e-07     1.488370e-33
 6.309576e-07     1.732661e-33
 7.079456e-07     2.016036e-33
 7.943284e-07     2.344712e-33
 8.912505e-07     2.725882e-33
 1.000000e-06     3.167899e-33
 1.122019e-06     3.680425e-33
 1.258925e-06     4.274660e-33
 1.412538e-06     4.963600e-33
 1.584893e-06     5.762276e-33
 1.778279e-06     6.688133e-33
 1.995263e-06     7.761378e-33
 2.238721e-06     9.005405e-33
 2.511887e-06     1.044736e-32
 2.818382e-06     1.211867e-32
 3.162278e-06     1.405578e-32
 3.548136e-06     1.630090e-32
 3.981071e-06     1.890291e-32
 4.466837e-06     2.191856e-32
 5.011870e-06     2.541346e-32
 5.623413e-06     2.946380e-32
 6.309576e-06     3.415777e-32
 7.079456e-06     3.959749e-32
 7.943284e-06     4.590152e-32
 8.912505e-06     5.320696e-32
 1.000000e-05     6.167302e-32
 1.122019e-05     7.148388e-32
 1.258925e-05     8.285296e-32
 1.412538e-05     9.602799e-32
 1.584893e-05     1.112954e-31
 1.778279e-05     1.289877e-31
 1.995263e-05     1.494899e-31
 2.238721e-05     1.732479e-31
 2.511887e-05     2.007791e-31
 2.818382e-05     2.326822e-31
 3.162278e-05     2.696517e-31
 3.548135e-05     3.124919e-31
 3.981071e-05     3.621347e-31
 4.466837e-05     4.196609e-31
 5.011870e-05     4.863211e-31
 5.623413e-05     5.635671e-31
 6.309577e-05     6.530791e-31
 7.079457e-05     7.568033e-31
 7.943284e-05     8.769985e-31
 8.912505e-05     1.016278e-30
 1.000000e-04     1.177674e-30
 1.122018e-04     1.364695e-30
 1.258926e-04     1.581275e-30
 1.412538e-04     1.828465e-30
 1.584893e-04     2.112611e-30
 1.778279e-04     2.440951e-30
 1.995262e-04     2.821631e-30
 2.238722e-04     3.263973e-30
 2.511887e-04     3.778770e-30
 2.818383e-04     4.378646e-30
 3.162278e-04     5.078427e-30
 3.548134e-04     5.895579e-30
 3.981073e-04     6.850731e-30
 4.466837e-04     7.968251e-30
 5.011873e-04     9.276990e-30
 5.623413e-04     1.081110e-29
 6.309572e-04     1.261107e-29
 7.079460e-04     1.472489e-29
 7.943284e-04     1.720953e-29
 8.912510e-04     2.013259e-29
 1.000000e-03     2.357446e-29
 1.122018e-03     2.763063e-29
 1.258926e-03     3.241479e-29
 1.412538e-03     3.806205e-29
 1.584893e-03     4.473345e-29
 1.778279e-03     5.262081e-29
 1.995262e-03     6.195271e-29
 2.238722e-03     7.300175e-29
 2.511887e-03     8.609294e-29
 2.818383e-03     1.016143e-28
 3.162278e-03     1.200291e-28
 3.548133e-03     1.418904e-28
 3.981073e-03     1.678593e-28
 4.466837e-03     1.987253e-28
 5.011873e-03     2.354332e-28
 5.623413e-03     2.791147e-28
 6.309573e-03     3.311289e-28
 7.079460e-03     3.931161e-28
 7.943284e-03     4.670698e-28
 8.912510e-03     5.554383e-28
 1.000000e-02     6.612564e-28
 1.122019e-02     7.883176e-28
 1.258925e-02     9.413785e-28
 1.412538e-02     1.126404e-27
 1.584894e-02     1.350813e-27
 1.778279e-02     1.623745e-27
 1.995263e-02     1.956334e-27
 2.238721e-02     2.361951e-27
 2.511887e-02     2.856502e-27
 2.818385e-02     3.458703e-27
 3.162277e-02     4.190435e-27
 3.548136e-02     5.077217e-27
 3.981071e-02     6.148678e-27
 4.466837e-02     7.439357e-27
 5.011876e-02     8.989500e-27
 5.623413e-02     1.084620e-26
 6.309576e-02     1.306482e-26
 7.079456e-02     1.571053e-26
 7.943284e-02     1.886047e-26
 8.912515e-02     2.260601e-26
 1.000000e-01     2.705567e-26
 1.122019e-01     3.234090e-26
 1.258925e-01     3.850566e-26
 1.412538e-01     4.542834e-26
 1.584894e-01     5.300053e-26
 1.778279e-01     6.112824e-26
 1.995263e-01     6.973061e-26
 2.238721e-01     7.873757e-26
 2.511887e-01     8.808900e-26
 2.818385e-01     9.773335e-26
 3.162278e-01     1.076272e-25
 3.548135e-01     1.177350e-25
 3.981071e-01     1.280287e-25
 4.466837e-01     1.384873e-25
 5.011876e-01     1.490962e-25
 5.623413e-01     1.598467e-25
 6.309576e-01     1.707007e-25
 7.079456e-01     1.810680e-25
 7.943284e-01     1.912925e-25
 8.912515e-01     2.016388e-25
 1.000000e+00     2.122981e-25
 1.122019e+00     2.234192e-25
 1.258925e+00     2.351338e-25
 1.412538e+00     2.475763e-25
 1.584894e+00     2.608966e-25
 1.778279e+00     2.752702e-25
 1.995263e+00     2.909076e-25
 2.238721e+00     3.080615e-25
 2.511887e+00     3.270372e-25
 2.818385e+00     3.482026e-25
 3.162278e+00     3.720013e-25
 3.548136e+00     3.989681e-25
 3.981071e+00     4.297465e-25
 4.466837e+00     4.651121e-25
 5.011876e+00     5.059971e-25
 5.623413e+00     5.535206e-25
 6.309576e+00     6.089016e-25
 7.079456e+00     6.715768e-25
 7.943284e+00     7.445399e-25
 8.912516e+00     8.308738e-25
 1.000000e+01     9.337906e-25
 1.122019e+01     1.056764e-24
 1.258925e+01     1.203619e-24
 1.412538e+01     1.378596e-24
 1.584894e+01     1.586316e-24
 1.778279e+01     1.831682e-24
 1.995263e+01     2.119617e-24
 2.238721e+01     2.454632e-24
 2.511887e+01     2.840133e-24
 2.818385e+01     3.277016e-24
 3.162278e+01     3.762054e-24
 3.548135e+01     4.294557e-24
 3.981071e+01     4.875515e-24
 4.466837e+01     5.427426e-24
 5.011876e+01     6.037033e-24
 5.623413e+01     6.645377e-24
 6.309576e+01     7.280014e-24
 7.079456e+01     7.989188e-24
 7.943284e+01     8.753680e-24
 8.912515e+01     9.639145e-24
 1.000000e+02     1.065950e-23
 1.120000e+02     1.178960e-23
 1.250000e+02     1.300293e-23
 1.400000e+02     1.430153e-23
 1.550000e+02     1.546733e-23
 1.650000e+02     1.619196e-23
 1.750000e+02     1.685298e-23
 1.850000e+02     1.748005e-23
 1.900000e+02     1.778602e-23
 1.950000e+02     1.810190e-23
 2.000000e+02     1.845697e-23
 2.050000e+02     1.892826e-23
 2.100000e+02     1.968716e-23
 2.150000e+02     2.103302e-23
 2.180000e+02     2.239428e-23
 2.210000e+02     2.437984e-23
 2.240000e+02     2.739204e-23
 2.260000e+02     3.019179e-23
 2.270000e+02     3.188572e-23
 2.275000e+02     3.278101e-23
 2.278400e+02     3.349385e-23
 2.380000e+02     4.267445e-23
 2.500000e+02     5.216153e-23
 2.700000e+02     6.474065e-23
 2.900000e+02     7.634065e-23
 3.035000e+02     8.320066e-23
 3.037800e+02     1.558803e-22
 3.045000e+02     1.550951e-22
 3.060000e+02     1.538246e-22
 3.080000e+02     1.524262e-22
 3.100000e+02     1.508494e-22
 3.120000e+02     1.493539e-22
 3.150000e+02     1.469867e-22
 3.200000e+02     1.437024e-22
 3.250000e+02     1.406378e-22
 3.300000e+02     1.382032e-22
 3.400000e+02     1.338881e-22
 3.600000e+02     1.294186e-22
 3.800000e+02     1.293244e-22
 4.050000e+02     1.338718e-22
 4.250000e+02     1.395257e-22
 4.500000e+02     1.482481e-22
 4.650000e+02     1.542474e-22
 4.750000e+02     1.585007e-22
 4.820000e+02     1.610855e-22
 4.870000e+02     1.628765e-22
 4.910000e+02     1.643944e-22
 4.950000e+02     1.665110e-22
 4.980000e+02     1.676132e-22
 5.000000e+02     1.683037e-22
 5.020000e+02     1.690065e-22
 5.039800e+02     1.697229e-22
 5.100000e+02     1.734406e-22
 5.250000e+02     1.802921e-22
 5.600000e+02     1.975953e-22
 6.000000e+02     2.157025e-22
 6.500000e+02     2.391331e-22
 7.000000e+02     2.632827e-22
 7.500000e+02     2.906117e-22
 8.000000e+02     3.223725e-22
 8.300000e+02     3.454997e-22
 8.600000e+02     3.716003e-22
 8.800000e+02     3.907550e-22
 8.900000e+02     4.015617e-22
 8.960000e+02     4.088124e-22
 9.000000e+02     4.131704e-22
 9.030000e+02     4.164707e-22
 9.060000e+02     4.206404e-22
 9.090000e+02     4.241244e-22
 9.117800e+02     4.273773e-22
 9.300000e+02     7.557211e-22
 9.500000e+02     9.635085e-22
 9.750000e+02     1.512700e-21
 9.900000e+02     1.774303e-21
 1.005000e+03     2.130637e-21
 1.025000e+03     2.680460e-21
 1.045000e+03     3.198890e-21
 1.065000e+03     3.909912e-21
 1.085000e+03     4.684546e-21
 1.105000e+03     5.431570e-21
 1.125000e+03     6.288820e-21
 1.145000e+03     7.082787e-21
 1.165000e+03     7.993972e-21
 1.185000e+03     8.819931e-21
 1.205000e+03     9.690833e-21
 1.215600e+03     1.008157e-20
 1.215670e+03     1.049635e-20
 1.216000e+03     1.050923e-20
 1.218000e+03     1.058575e-20
 1.221000e+03     1.069851e-20
 1.225000e+03     1.082833e-20
 1.230000e+03     1.098065e-20
 1.240000e+03     1.137659e-20
 1.250000e+03     1.181106e-20
 1.265000e+03     1.258717e-20
 1.285000e+03     1.358910e-20
 1.305000e+03     1.464795e-20
 1.325000e+03     1.567673e-20
 1.345000e+03     1.673380e-20
 1.365000e+03     1.780695e-20
 1.385000e+03     1.891326e-20
 1.405000e+03     1.993598e-20
 1.425000e+03     2.091650e-20
 1.442000e+03     2.172696e-20
 1.455000e+03     2.241204e-20
 1.475000e+03     2.339080e-20
 1.517000e+03     2.531324e-20
 1.595000e+03     2.844818e-20
 1.672000e+03     3.138221e-20
 1.745000e+03     3.385065e-20
 1.825000e+03     3.639212e-20
 1.905000e+03     3.845047e-20
 1.984000e+03     4.019090e-20
 2.065000e+03     4.165111e-20
 2.135000e+03     4.257686e-20
 2.215000e+03     4.341681e-20
 2.295000e+03     4.423791e-20
 2.375000e+03     4.500539e-20
 2.455000e+03     4.587933e-20
 2.525000e+03     4.662266e-20
 2.605000e+03     4.753047e-20
 2.685000e+03     4.865444e-20
 2.765000e+03     4.965646e-20
 2.845000e+03     5.045999e-20
 2.950000e+03     5.172301e-20
 3.110000e+03     5.364348e-20
 3.270000e+03     5.532713e-20
 3.430000e+03     5.689829e-20
 3.590000e+03     5.838326e-20
 3.730000e+03     5.994443e-20
 3.890000e+03     6.450622e-20
 4.050000e+03     6.888776e-20
 4.210000e+03     7.581085e-20
 4.370000e+03     8.196542e-20
 4.530000e+03     8.790562e-20
 4.690000e+03     9.365281e-20
 4.850000e+03     9.845509e-20
 5.010000e+03     1.026802e-19
 5.170000e+03     1.066891e-19
 5.330000e+03     1.104850e-19
 5.490000e+03     1.140584e-19
 5.650000e+03     1.175238e-19
 5.810000e+03     1.208601e-19
 5.970000e+03     1.237365e-19
 6.130000e+03     1.265803e-19
 6.290000e+03     1.290350e-19
 6.450000e+03     1.313509e-19
 6.610000e+03     1.334449e-19
 6.770000e+03     1.355569e-19
 6.930000e+03     1.374840e-19
 7.090000e+03     1.392345e-19
 7.250000e+03     1.408615e-19
 7.410000e+03     1.424201e-19
 7.570000e+03     1.439390e-19
 7.730000e+03     1.455630e-19
 7.890000e+03     1.470337e-19
 8.050000e+03     1.483984e-19
 8.210000e+03     1.497572e-19
 8.370000e+03     1.510382e-19
 8.530000e+03     1.522559e-19
 8.690000e+03     1.534553e-19
 8.850000e+03     1.548410e-19
 9.010000e+03     1.561603e-19
 9.170000e+03     1.574359e-19
 9.330000e+03     1.589892e-19
 9.490000e+03     1.603259e-19
 9.650000e+03     1.616726e-19
 9.810000e+03     1.629208e-19
 9.970000e+03     1.642782e-19
 1.050000e+04     1.678070e-19
 1.150000e+04     1.718631e-19
 1.250000e+04     1.747735e-19
 1.350000e+04     1.767584e-19
 1.450000e+04     1.785530e-19
 1.550000e+04     1.809921e-19
 1.650000e+04     1.828757e-19
 1.750000e+04     1.828557e-19
 1.850000e+04     1.809057e-19
 1.950000e+04     1.773855e-19
 2.050000e+04     1.732463e-19
 2.150000e+04     1.687162e-19
 2.250000e+04     1.637066e-19
 2.350000e+04     1.575666e-19
 2.450000e+04     1.503657e-19
 2.550000e+04     1.441670e-19
 2.650000e+04     1.381463e-19
 2.750000e+04     1.329693e-19
 2.850000e+04     1.282309e-19
 2.950000e+04     1.237689e-19
 3.050000e+04     1.195040e-19
 3.150000e+04     1.153981e-19
 3.250000e+04     1.114092e-19
 3.350000e+04     1.075297e-19
 3.450000e+04     1.037798e-19
 3.550000e+04     1.001952e-19
 3.650000e+04     9.675866e-20
 3.750000e+04     9.346440e-20
 3.850000e+04     9.033571e-20
 3.950000e+04     8.750298e-20
 4.050000e+04     8.509852e-20
 4.150000e+04     8.241606e-20
 4.250000e+04     7.962450e-20
 4.350000e+04     7.676532e-20
 4.450000e+04     7.405201e-20
 4.550000e+04     7.147277e-20
 4.650000e+04     6.905556e-20
 4.750000e+04     6.687690e-20
 4.850000e+04     6.503820e-20
 4.950000e+04     6.360513e-20
 5.050000e+04     6.259788e-20
 5.150000e+04     6.203238e-20
 5.250000e+04     6.193568e-20
 5.350000e+04     6.233847e-20
 5.450000e+04     6.327067e-20
 5.550000e+04     6.460118e-20
 5.650000e+04     6.646317e-20
 5.750000e+04     6.905784e-20
 5.850000e+04     7.096577e-20
 5.950000e+04     7.249448e-20
 6.050000e+04     7.550438e-20
 6.150000e+04     8.226066e-20
 6.250000e+04     9.868286e-20
 6.350000e+04     1.104958e-19
 6.450000e+04     1.151466e-19
 6.550000e+04     1.189029e-19
 6.650010e+04     1.212196e-19
 6.750010e+04     1.246866e-19
 6.850010e+04     1.270968e-19
 6.950010e+04     1.314761e-19
 7.020000e+04     1.358700e-19
 7.100000e+04     1.409207e-19
 7.180000e+04     1.456324e-19
 7.260000e+04     1.499105e-19
 7.340000e+04     1.562735e-19
 7.420000e+04     1.654001e-19
 7.500000e+04     1.781663e-19
 7.580000e+04     1.944388e-19
 7.660000e+04     2.124528e-19
 7.740000e+04     2.298059e-19
 7.820000e+04     2.460141e-19
 7.900000e+04     2.602331e-19
 7.980000e+04     2.714347e-19
 8.060000e+04     2.791382e-19
 8.140000e+04     2.840088e-19
 8.220000e+04     2.876996e-19
 8.300000e+04     2.901090e-19
 8.380000e+04     2.921208e-19
 8.460000e+04     2.943014e-19
 8.540000e+04     2.968715e-19
 8.620000e+04     2.999958e-19
 8.700000e+04     3.023321e-19
 8.780000e+04     3.023026e-19
 8.860000e+04     3.003208e-19
 8.940000e+04     2.975187e-19
 9.020000e+04     2.933801e-19
 9.100000e+04     2.891756e-19
 9.180000e+04     2.848118e-19
 9.260000e+04     2.801336e-19
 9.340000e+04     2.756584e-19
 9.420000e+04     2.710950e-19
 9.500000e+04     2.668223e-19
 9.580000e+04     2.629241e-19
 9.660000e+04     2.596378e-19
 9.740000e+04     2.566499e-19
 9.820000e+04     2.531495e-19
 9.900000e+04     2.495140e-19
 9.980000e+04     2.455987e-19
 1.006000e+05     2.420120e-19
 1.020000e+05     2.364967e-19
 1.040000e+05     2.292662e-19
 1.060000e+05     2.253647e-19
 1.080000e+05     2.235020e-19
 1.100000e+05     2.223157e-19
 1.120000e+05     2.324154e-19
 1.140000e+05     2.559751e-19
 1.160000e+05     2.638659e-19
 1.180000e+05     2.700325e-19
 1.200000e+05     2.775012e-19
 1.220000e+05     2.883984e-19
 1.240000e+05     3.020732e-19
 1.260000e+05     3.209629e-19
 1.280000e+05     3.501680e-19
 1.300000e+05     3.773779e-19
 1.320000e+05     3.861032e-19
 1.340000e+05     3.992463e-19
 1.360000e+05     4.068643e-19
 1.380000e+05     4.188472e-19
 1.400000e+05     4.250482e-19
 1.420000e+05     4.365358e-19
 1.440000e+05     4.435569e-19
 1.460000e+05     4.533592e-19
 1.480000e+05     4.597190e-19
 1.500000e+05     4.680711e-19
 1.520000e+05     4.742994e-19
 1.540000e+05     4.813412e-19
 1.560000e+05     4.903527e-19
 1.580000e+05     4.979220e-19
 1.600000e+05     5.041395e-19
 1.620000e+05     5.094493e-19
 1.640000e+05     5.181220e-19
 1.660000e+05     5.288339e-19
 1.680000e+05     5.395084e-19
 1.700000e+05     5.506220e-19
 1.720000e+05     5.653022e-19
 1.740000e+05     5.771385e-19
 1.760000e+05     5.852365e-19
 1.780000e+05     5.945321e-19
 1.800000e+05     6.024047e-19
 1.820000e+05     6.099771e-19
 1.840000e+05     6.184003e-19
 1.860000e+05     6.278343e-19
 1.880000e+05     6.436751e-19
 1.900000e+05     6.562376e-19
 1.920000e+05     6.687785e-19
 1.940000e+05     6.817823e-19
 1.960000e+05     6.975935e-19
 1.980000e+05     7.142017e-19
 2.000000e+05     7.315643e-19
 2.020000e+05     7.509327e-19
 2.040000e+05     7.714948e-19
 2.060000e+05     7.916504e-19
 2.080000e+05     8.127969e-19
 2.100000e+05     8.358132e-19
 2.120000e+05     8.589812e-19
 2.140000e+05     8.825302e-19
 2.160000e+05     9.087562e-19
 2.180000e+05     9.360598e-19
 2.200000e+05     9.625684e-19
 2.220000e+05     9.901807e-19
 2.240000e+05     1.020461e-18
 2.260000e+05     1.050352e-18
 2.280000e+05     1.079761e-18
 2.300000e+05     1.111017e-18
 2.320000e+05     1.144419e-18
 2.340000e+05     1.178529e-18
 2.360000e+05     1.212656e-18
 2.380000e+05     1.248110e-18
 2.400000e+05     1.286221e-18
 2.420000e+05     1.325632e-18
 2.440000e+05     1.365258e-18
 2.460000e+05     1.406171e-18
 2.480000e+05     1.449526e-18
 2.500000e+05     1.494596e-18
 2.520000e+05     1.539446e-18
 2.540000e+05     1.584758e-18
 2.560000e+05     1.632963e-18
 2.580000e+05     1.684705e-18
 2.600000e+05     1.738405e-18
 2.620000e+05     1.791666e-18
 2.640000e+05     1.845820e-18
 2.660000e+05     1.902426e-18
 2.680000e+05     1.961649e-18
 2.700000e+05     2.022226e-18
 2.720000e+05     2.083003e-18
 2.740000e+05     2.144072e-18
 2.760000e+05     2.207242e-18
 2.780000e+05     2.273698e-18
 2.800000e+05     2.342966e-18
 2.820000e+05     2.414204e-18
 2.840000e+05     2.485208e-18
 2.860000e+05     2.555973e-18
 2.880000e+05     2.628238e-18
 2.900000e+05     2.703322e-18
 2.920000e+05     2.779735e-18
 2.940000e+05     2.858103e-18
 2.960000e+05     2.938287e-18
 2.980000e+05     3.018939e-18
 3.000000e+05     3.098960e-18
 3.020000e+05     3.182209e-18
 3.040000e+05     3.267088e-18
 3.060000e+05     3.352708e-18
 3.080000e+05     3.439986e-18
 3.100000e+05     3.527901e-18
 3.120000e+05     3.615294e-18
 3.140000e+05     3.704770e-18
 3.160000e+05     3.797330e-18
 3.180000e+05     3.890742e-18
 3.200000e+05     3.987138e-18
 3.220000e+05     4.085579e-18
 3.240000e+05     4.183611e-18
 3.260000e+05     4.285076e-18
 3.280000e+05     4.385796e-18
 3.300000e+05     4.486973e-18
 3.320000e+05     4.590242e-18
 3.340000e+05     4.703525e-18
 3.360000e+05     4.823929e-18
 3.380000e+05     4.937765e-18
 3.400000e+05     5.039975e-18
 3.420000e+05     5.144944e-18
 3.440000e+05     5.250047e-18
 3.460000e+05     5.355044e-18
 3.480000e+05     5.475278e-18
 3.500000e+05     5.604000e-18
 3.520000e+05     5.722640e-18
 3.540000e+05     5.830298e-18
 3.560000e+05     5.936946e-18
 3.580000e+05     6.042763e-18
 3.600000e+05     6.149495e-18
 3.620000e+05     6.258318e-18
 3.640000e+05     6.365264e-18
 3.660000e+05     6.471097e-18
 3.680000e+05     6.580816e-18
 3.700000e+05     6.692577e-18
 3.720000e+05     6.802973e-18
 3.740000e+05     6.914964e-18
 3.760000e+05     7.028302e-18
 3.780000e+05     7.143249e-18
 3.800000e+05     7.259482e-18
 3.820000e+05     7.376110e-18
 3.840000e+05     7.493704e-18
 3.860000e+05     7.613133e-18
 3.880000e+05     7.733540e-18
 3.900000e+05     7.854484e-18
 3.920000e+05     7.976550e-18
 4.320000e+05     1.058489e-17
 4.760000e+05     1.367818e-17
 5.250000e+05     1.716202e-17
 5.790000e+05     2.079192e-17
 6.390000e+05     2.435816e-17
 7.040000e+05     2.742997e-17
 7.760000e+05     2.976093e-17
 8.560000e+05     3.115325e-17
 9.430000e+05     3.152319e-17
 1.040000e+06     3.093159e-17
 1.147000e+06     2.951253e-17
 1.264000e+06     2.748237e-17
 1.394000e+06     2.502996e-17
 1.537000e+06     2.239061e-17
 1.694000e+06     1.974061e-17
 1.868000e+06     1.719117e-17
 2.059000e+06     1.485174e-17
 2.270000e+06     1.275240e-17
 2.503000e+06     1.090735e-17
 2.760000e+06     9.306526e-18
 3.043000e+06     7.926538e-18
 3.354000e+06     6.737476e-18
 3.698000e+06     5.703051e-18
