## EBL from Khaire & Srianand 2018; Q15 Model with alpha=-1.5 
## Column1:wavelength (Angstrom);  Column2:EBL specific intensity J_nu (erg/s/cm^2/Hz/Sr)
## ===========================================================================================
 1.000000e-08     1.039383e-37
 1.122019e-08     1.516515e-37
 1.258925e-08     2.204388e-37
 1.412538e-08     3.181500e-37
 1.584893e-08     4.546269e-37
 1.778279e-08     6.418604e-37
 1.995263e-08     8.940933e-37
 2.238721e-08     1.227924e-36
 2.511887e-08     1.662482e-36
 2.818382e-08     2.219654e-36
 3.162278e-08     2.924460e-36
 3.548135e-08     3.805474e-36
 3.981071e-08     4.895377e-36
 4.466837e-08     6.231615e-36
 5.011870e-08     7.857089e-36
 5.623413e-08     9.821118e-36
 6.309576e-08     1.218036e-35
 7.079456e-08     1.500004e-35
 7.943284e-08     1.835544e-35
 8.912505e-08     2.233335e-35
 1.000000e-07     2.703418e-35
 1.122019e-07     3.257391e-35
 1.258925e-07     3.908673e-35
 1.412538e-07     4.672823e-35
 1.584892e-07     5.567823e-35
 1.778279e-07     6.614553e-35
 1.995263e-07     7.837168e-35
 2.238721e-07     9.263661e-35
 2.511887e-07     1.092651e-34
 2.818382e-07     1.286330e-34
 3.162278e-07     1.511766e-34
 3.548136e-07     1.774012e-34
 3.981071e-07     2.078920e-34
 4.466837e-07     2.433284e-34
 5.011870e-07     2.844965e-34
 5.623413e-07     3.323088e-34
 6.309576e-07     3.878216e-34
 7.079456e-07     4.522590e-34
 7.943284e-07     5.270414e-34
 8.912505e-07     6.138121e-34
 1.000000e-06     7.144788e-34
 1.122019e-06     8.312495e-34
 1.258925e-06     9.666825e-34
 1.412538e-06     1.123747e-33
 1.584893e-06     1.305878e-33
 1.778279e-06     1.517060e-33
 1.995263e-06     1.761911e-33
 2.238721e-06     2.045775e-33
 2.511887e-06     2.374857e-33
 2.818382e-06     2.756335e-33
 3.162278e-06     3.198537e-33
 3.548136e-06     3.711108e-33
 3.981071e-06     4.305218e-33
 4.466837e-06     4.993831e-33
 5.011870e-06     5.791943e-33
 5.623413e-06     6.716963e-33
 6.309576e-06     7.789035e-33
 7.079456e-06     9.031502e-33
 7.943284e-06     1.047145e-32
 8.912505e-06     1.214022e-32
 1.000000e-05     1.407417e-32
 1.122019e-05     1.631540e-32
 1.258925e-05     1.891267e-32
 1.412538e-05     2.192259e-32
 1.584893e-05     2.541062e-32
 1.778279e-05     2.945272e-32
 1.995263e-05     3.413689e-32
 2.238721e-05     3.956500e-32
 2.511887e-05     4.585528e-32
 2.818382e-05     5.314453e-32
 3.162278e-05     6.159150e-32
 3.548135e-05     7.137992e-32
 3.981071e-05     8.272276e-32
 4.466837e-05     9.586698e-32
 5.011870e-05     1.110983e-31
 5.623413e-05     1.287485e-31
 6.309577e-05     1.492016e-31
 7.079457e-05     1.729023e-31
 7.943284e-05     2.003667e-31
 8.912505e-05     2.321918e-31
 1.000000e-04     2.690707e-31
 1.122018e-04     3.118053e-31
 1.258926e-04     3.613241e-31
 1.412538e-04     4.185883e-31
 1.584893e-04     4.847388e-31
 1.778279e-04     5.611139e-31
 1.995262e-04     6.492831e-31
 2.238722e-04     7.511138e-31
 2.511887e-04     8.688422e-31
 2.818383e-04     1.005151e-30
 3.162278e-04     1.163238e-30
 3.548134e-04     1.346899e-30
 3.981073e-04     1.560611e-30
 4.466837e-04     1.809650e-30
 5.011873e-04     2.100228e-30
 5.623413e-04     2.439666e-30
 6.309572e-04     2.836606e-30
 7.079460e-04     3.301260e-30
 7.943284e-04     3.845703e-30
 8.912510e-04     4.484240e-30
 1.000000e-03     5.233829e-30
 1.122018e-03     6.114579e-30
 1.258926e-03     7.150376e-30
 1.412538e-03     8.369557e-30
 1.584893e-03     9.805824e-30
 1.778279e-03     1.149926e-29
 1.995262e-03     1.349755e-29
 2.238722e-03     1.585745e-29
 2.511887e-03     1.864654e-29
 2.818383e-03     2.194538e-29
 3.162278e-03     2.585002e-29
 3.548133e-03     3.047494e-29
 3.981073e-03     3.595687e-29
 4.466837e-03     4.245882e-29
 5.011873e-03     5.017560e-29
 5.623413e-03     5.933994e-29
 6.309573e-03     7.023016e-29
 7.079460e-03     8.317969e-29
 7.943284e-03     9.858875e-29
 8.912510e-03     1.169400e-28
 1.000000e-02     1.388183e-28
 1.122019e-02     1.649373e-28
 1.258925e-02     1.961728e-28
 1.412538e-02     2.336077e-28
 1.584894e-02     2.785829e-28
 1.778279e-02     3.327628e-28
 1.995263e-02     3.982102e-28
 2.238721e-02     4.774655e-28
 2.511887e-02     5.736418e-28
 2.818385e-02     6.905196e-28
 3.162277e-02     8.326518e-28
 3.548136e-02     1.005486e-27
 3.981071e-02     1.215479e-27
 4.466837e-02     1.470254e-27
 5.011876e-02     1.778760e-27
 5.623413e-02     2.151477e-27
 6.309576e-02     2.600679e-27
 7.079456e-02     3.140708e-27
 7.943284e-02     3.788396e-27
 8.912515e-02     4.563483e-27
 1.000000e-01     5.489204e-27
 1.122019e-01     6.593036e-27
 1.258925e-01     7.904930e-27
 1.412538e-01     9.450560e-27
 1.584894e-01     1.125104e-26
 1.778279e-01     1.332041e-26
 1.995263e-01     1.566342e-26
 2.238721e-01     1.827474e-26
 2.511887e-01     2.114000e-26
 2.818385e-01     2.423802e-26
 3.162278e-01     2.754377e-26
 3.548135e-01     3.103126e-26
 3.981071e-01     3.467547e-26
 4.466837e-01     3.845384e-26
 5.011876e-01     4.234683e-26
 5.623413e-01     4.633814e-26
 6.309576e-01     5.041432e-26
 7.079456e-01     5.454527e-26
 7.943284e-01     5.871107e-26
 8.912515e-01     6.289778e-26
 1.000000e+00     6.709838e-26
 1.122019e+00     7.131732e-26
 1.258925e+00     7.557302e-26
 1.412538e+00     7.989815e-26
 1.584894e+00     8.433683e-26
 1.778279e+00     8.894173e-26
 1.995263e+00     9.377185e-26
 2.238721e+00     9.889164e-26
 2.511887e+00     1.043729e-25
 2.818385e+00     1.102964e-25
 3.162278e+00     1.167557e-25
 3.548136e+00     1.238615e-25
 3.981071e+00     1.317448e-25
 4.466837e+00     1.405632e-25
 5.011876e+00     1.505058e-25
 5.623413e+00     1.617995e-25
 6.309576e+00     1.747161e-25
 7.079456e+00     1.895102e-25
 7.943284e+00     2.065264e-25
 8.912516e+00     2.261973e-25
 1.000000e+01     2.490596e-25
 1.122019e+01     2.757843e-25
 1.258925e+01     3.072014e-25
 1.412538e+01     3.443202e-25
 1.584894e+01     3.883370e-25
 1.778279e+01     4.406404e-25
 1.995263e+01     5.028113e-25
 2.238721e+01     5.766075e-25
 2.511887e+01     6.639365e-25
 2.818385e+01     7.667849e-25
 3.162278e+01     8.870955e-25
 3.548135e+01     1.026575e-24
 3.981071e+01     1.186412e-24
 4.466837e+01     1.366949e-24
 5.011876e+01     1.567389e-24
 5.623413e+01     1.785632e-24
 6.309576e+01     2.018308e-24
 7.079456e+01     2.257682e-24
 7.943284e+01     2.514830e-24
 8.912515e+01     2.788325e-24
 1.000000e+02     3.086712e-24
 1.120000e+02     3.415894e-24
 1.250000e+02     3.780247e-24
 1.400000e+02     4.197995e-24
 1.550000e+02     4.614847e-24
 1.650000e+02     4.888979e-24
 1.750000e+02     5.157164e-24
 1.850000e+02     5.417268e-24
 1.900000e+02     5.543994e-24
 1.950000e+02     5.668436e-24
 2.000000e+02     5.792870e-24
 2.050000e+02     5.918882e-24
 2.100000e+02     6.054370e-24
 2.150000e+02     6.213479e-24
 2.180000e+02     6.331552e-24
 2.210000e+02     6.480089e-24
 2.240000e+02     6.674048e-24
 2.260000e+02     6.841837e-24
 2.270000e+02     6.940970e-24
 2.275000e+02     6.994193e-24
 2.278400e+02     7.031912e-24
 2.380000e+02     7.805073e-24
 2.500000e+02     8.586173e-24
 2.700000e+02     1.009920e-23
 2.900000e+02     1.182435e-23
 3.035000e+02     1.299685e-23
 3.037800e+02     1.520381e-23
 3.045000e+02     1.528137e-23
 3.060000e+02     1.544744e-23
 3.080000e+02     1.566702e-23
 3.100000e+02     1.588774e-23
 3.120000e+02     1.610445e-23
 3.150000e+02     1.642796e-23
 3.200000e+02     1.696687e-23
 3.250000e+02     1.750314e-23
 3.300000e+02     1.814636e-23
 3.400000e+02     1.925570e-23
 3.600000e+02     2.151648e-23
 3.800000e+02     2.371351e-23
 4.050000e+02     2.657144e-23
 4.250000e+02     2.879409e-23
 4.500000e+02     3.151479e-23
 4.650000e+02     3.305953e-23
 4.750000e+02     3.410835e-23
 4.820000e+02     3.484004e-23
 4.870000e+02     3.535023e-23
 4.910000e+02     3.575501e-23
 4.950000e+02     3.615422e-23
 4.980000e+02     3.645463e-23
 5.000000e+02     3.665614e-23
 5.020000e+02     3.685340e-23
 5.039800e+02     3.705225e-23
 5.100000e+02     3.765892e-23
 5.250000e+02     3.925591e-23
 5.600000e+02     4.244679e-23
 6.000000e+02     4.604240e-23
 6.500000e+02     5.049921e-23
 7.000000e+02     5.497712e-23
 7.500000e+02     5.950356e-23
 8.000000e+02     6.458869e-23
 8.300000e+02     6.803643e-23
 8.600000e+02     7.161648e-23
 8.800000e+02     7.430539e-23
 8.900000e+02     7.563454e-23
 8.960000e+02     7.644606e-23
 9.000000e+02     7.699204e-23
 9.030000e+02     7.740383e-23
 9.060000e+02     7.781777e-23
 9.090000e+02     7.835525e-23
 9.117800e+02     7.874468e-23
 9.300000e+02     1.091220e-22
 9.500000e+02     1.233512e-22
 9.750000e+02     1.669870e-22
 9.900000e+02     1.704447e-22
 1.005000e+03     1.965062e-22
 1.025000e+03     2.299118e-22
 1.045000e+03     2.625501e-22
 1.065000e+03     3.244352e-22
 1.085000e+03     3.838989e-22
 1.105000e+03     4.341741e-22
 1.125000e+03     4.950439e-22
 1.145000e+03     5.618503e-22
 1.165000e+03     6.238899e-22
 1.185000e+03     6.869249e-22
 1.205000e+03     7.591606e-22
 1.215600e+03     7.934108e-22
 1.215670e+03     8.049909e-22
 1.216000e+03     8.059641e-22
 1.218000e+03     8.123541e-22
 1.221000e+03     8.209055e-22
 1.225000e+03     8.310028e-22
 1.230000e+03     8.437855e-22
 1.240000e+03     8.766378e-22
 1.250000e+03     9.156793e-22
 1.265000e+03     9.787678e-22
 1.285000e+03     1.064050e-21
 1.305000e+03     1.155598e-21
 1.325000e+03     1.249748e-21
 1.345000e+03     1.349582e-21
 1.365000e+03     1.452219e-21
 1.385000e+03     1.551910e-21
 1.405000e+03     1.653208e-21
 1.425000e+03     1.755302e-21
 1.442000e+03     1.843923e-21
 1.455000e+03     1.914616e-21
 1.475000e+03     2.020396e-21
 1.517000e+03     2.238971e-21
 1.595000e+03     2.640806e-21
 1.672000e+03     3.049034e-21
 1.745000e+03     3.434080e-21
 1.825000e+03     3.869687e-21
 1.905000e+03     4.287166e-21
 1.984000e+03     4.690970e-21
 2.065000e+03     5.088378e-21
 2.135000e+03     5.407699e-21
 2.215000e+03     5.759447e-21
 2.295000e+03     6.102106e-21
 2.375000e+03     6.449959e-21
 2.455000e+03     6.800935e-21
 2.525000e+03     7.113277e-21
 2.605000e+03     7.475073e-21
 2.685000e+03     7.871186e-21
 2.765000e+03     8.264082e-21
 2.845000e+03     8.629853e-21
 2.950000e+03     9.154851e-21
 3.110000e+03     1.000046e-20
 3.270000e+03     1.083714e-20
 3.430000e+03     1.169961e-20
 3.590000e+03     1.254413e-20
 3.730000e+03     1.332104e-20
 3.890000e+03     1.451205e-20
 4.050000e+03     1.575925e-20
 4.210000e+03     1.748367e-20
 4.370000e+03     1.919246e-20
 4.530000e+03     2.102445e-20
 4.690000e+03     2.292795e-20
 4.850000e+03     2.485442e-20
 5.010000e+03     2.667672e-20
 5.170000e+03     2.851146e-20
 5.330000e+03     3.039551e-20
 5.490000e+03     3.227694e-20
 5.650000e+03     3.420777e-20
 5.810000e+03     3.616381e-20
 5.970000e+03     3.802862e-20
 6.130000e+03     3.991947e-20
 6.290000e+03     4.174676e-20
 6.450000e+03     4.353426e-20
 6.610000e+03     4.531365e-20
 6.770000e+03     4.705604e-20
 6.930000e+03     4.874835e-20
 7.090000e+03     5.042294e-20
 7.250000e+03     5.201858e-20
 7.410000e+03     5.358794e-20
 7.570000e+03     5.514315e-20
 7.730000e+03     5.667163e-20
 7.890000e+03     5.816403e-20
 8.050000e+03     5.963145e-20
 8.210000e+03     6.103844e-20
 8.370000e+03     6.241854e-20
 8.530000e+03     6.376240e-20
 8.690000e+03     6.506075e-20
 8.850000e+03     6.636323e-20
 9.010000e+03     6.762503e-20
 9.170000e+03     6.885442e-20
 9.330000e+03     7.008479e-20
 9.490000e+03     7.129616e-20
 9.650000e+03     7.246288e-20
 9.810000e+03     7.360912e-20
 9.970000e+03     7.473144e-20
 1.050000e+04     7.821592e-20
 1.150000e+04     8.360233e-20
 1.250000e+04     8.816384e-20
 1.350000e+04     9.191899e-20
 1.450000e+04     9.514650e-20
 1.550000e+04     9.803355e-20
 1.650000e+04     1.005700e-19
 1.750000e+04     1.024029e-19
 1.850000e+04     1.034120e-19
 1.950000e+04     1.037114e-19
 2.050000e+04     1.033505e-19
 2.150000e+04     1.025905e-19
 2.250000e+04     1.015083e-19
 2.350000e+04     1.002126e-19
 2.450000e+04     9.877760e-20
 2.550000e+04     9.725995e-20
 2.650000e+04     9.566119e-20
 2.750000e+04     9.407930e-20
 2.850000e+04     9.257070e-20
 2.950000e+04     9.108922e-20
 3.050000e+04     8.971573e-20
 3.150000e+04     8.853345e-20
 3.250000e+04     8.753327e-20
 3.350000e+04     8.676045e-20
 3.450000e+04     8.618783e-20
 3.550000e+04     8.568791e-20
 3.650000e+04     8.534163e-20
 3.750000e+04     8.505584e-20
 3.850000e+04     8.488454e-20
 3.950000e+04     8.480795e-20
 4.050000e+04     8.480172e-20
 4.150000e+04     8.485152e-20
 4.250000e+04     8.502593e-20
 4.350000e+04     8.528071e-20
 4.450000e+04     8.558025e-20
 4.550000e+04     8.592006e-20
 4.650000e+04     8.635271e-20
 4.750000e+04     8.685526e-20
 4.850000e+04     8.741107e-20
 4.950000e+04     8.801901e-20
 5.050000e+04     8.868698e-20
 5.150000e+04     8.940453e-20
 5.250000e+04     9.015421e-20
 5.350000e+04     9.049396e-20
 5.450000e+04     9.058741e-20
 5.550000e+04     9.085606e-20
 5.650000e+04     9.113257e-20
 5.750000e+04     9.179910e-20
 5.850000e+04     9.226077e-20
 5.950000e+04     9.268106e-20
 6.050000e+04     9.357263e-20
 6.150000e+04     9.689933e-20
 6.250000e+04     1.028925e-19
 6.350000e+04     1.070640e-19
 6.450000e+04     1.091863e-19
 6.550000e+04     1.110905e-19
 6.650010e+04     1.126562e-19
 6.750010e+04     1.142033e-19
 6.850010e+04     1.166101e-19
 6.950010e+04     1.192650e-19
 7.020000e+04     1.214033e-19
 7.100000e+04     1.235266e-19
 7.180000e+04     1.256845e-19
 7.260000e+04     1.284470e-19
 7.340000e+04     1.321264e-19
 7.420000e+04     1.364205e-19
 7.500000e+04     1.416078e-19
 7.580000e+04     1.479907e-19
 7.660000e+04     1.553062e-19
 7.740000e+04     1.624675e-19
 7.820000e+04     1.693369e-19
 7.900000e+04     1.757815e-19
 7.980000e+04     1.815268e-19
 8.060000e+04     1.866517e-19
 8.140000e+04     1.912433e-19
 8.220000e+04     1.952575e-19
 8.300000e+04     1.991693e-19
 8.380000e+04     2.030952e-19
 8.460000e+04     2.069017e-19
 8.540000e+04     2.108500e-19
 8.620000e+04     2.152566e-19
 8.700000e+04     2.195741e-19
 8.780000e+04     2.233855e-19
 8.860000e+04     2.264549e-19
 8.940000e+04     2.288882e-19
 9.020000e+04     2.309390e-19
 9.100000e+04     2.328698e-19
 9.180000e+04     2.345880e-19
 9.260000e+04     2.360111e-19
 9.340000e+04     2.373126e-19
 9.420000e+04     2.384456e-19
 9.500000e+04     2.393457e-19
 9.580000e+04     2.401574e-19
 9.660000e+04     2.410559e-19
 9.740000e+04     2.418144e-19
 9.820000e+04     2.420480e-19
 9.900000e+04     2.420645e-19
 9.980000e+04     2.419921e-19
 1.006000e+05     2.417978e-19
 1.020000e+05     2.412730e-19
 1.040000e+05     2.399978e-19
 1.060000e+05     2.388496e-19
 1.080000e+05     2.373889e-19
 1.100000e+05     2.360421e-19
 1.120000e+05     2.390948e-19
 1.140000e+05     2.475583e-19
 1.160000e+05     2.510590e-19
 1.180000e+05     2.526800e-19
 1.200000e+05     2.543506e-19
 1.220000e+05     2.564931e-19
 1.240000e+05     2.597790e-19
 1.260000e+05     2.651387e-19
 1.280000e+05     2.711980e-19
 1.300000e+05     2.761395e-19
 1.320000e+05     2.788637e-19
 1.340000e+05     2.822514e-19
 1.360000e+05     2.843953e-19
 1.380000e+05     2.829832e-19
 1.400000e+05     2.854559e-19
 1.420000e+05     2.876073e-19
 1.440000e+05     2.889131e-19
 1.460000e+05     2.888896e-19
 1.480000e+05     2.878335e-19
 1.500000e+05     2.894153e-19
 1.520000e+05     2.899468e-19
 1.540000e+05     2.898539e-19
 1.560000e+05     2.908075e-19
 1.580000e+05     2.915243e-19
 1.600000e+05     2.922745e-19
 1.620000e+05     2.932063e-19
 1.640000e+05     2.946739e-19
 1.660000e+05     2.975389e-19
 1.680000e+05     2.997033e-19
 1.700000e+05     3.039080e-19
 1.720000e+05     3.082796e-19
 1.740000e+05     3.113470e-19
 1.760000e+05     3.138941e-19
 1.780000e+05     3.167282e-19
 1.800000e+05     3.192499e-19
 1.820000e+05     3.217209e-19
 1.840000e+05     3.235792e-19
 1.860000e+05     3.265430e-19
 1.880000e+05     3.313304e-19
 1.900000e+05     3.351056e-19
 1.920000e+05     3.383194e-19
 1.940000e+05     3.411409e-19
 1.960000e+05     3.442147e-19
 1.980000e+05     3.478995e-19
 2.000000e+05     3.515372e-19
 2.020000e+05     3.546241e-19
 2.040000e+05     3.587511e-19
 2.060000e+05     3.628363e-19
 2.080000e+05     3.666806e-19
 2.100000e+05     3.709672e-19
 2.120000e+05     3.751590e-19
 2.140000e+05     3.793687e-19
 2.160000e+05     3.837087e-19
 2.180000e+05     3.882703e-19
 2.200000e+05     3.929250e-19
 2.220000e+05     3.976602e-19
 2.240000e+05     4.025308e-19
 2.260000e+05     4.074877e-19
 2.280000e+05     4.124792e-19
 2.300000e+05     4.176047e-19
 2.320000e+05     4.230079e-19
 2.340000e+05     4.284930e-19
 2.360000e+05     4.340201e-19
 2.380000e+05     4.397857e-19
 2.400000e+05     4.457515e-19
 2.420000e+05     4.516706e-19
 2.440000e+05     4.578592e-19
 2.460000e+05     4.642173e-19
 2.480000e+05     4.707076e-19
 2.500000e+05     4.773858e-19
 2.520000e+05     4.842672e-19
 2.540000e+05     4.912660e-19
 2.560000e+05     4.984117e-19
 2.580000e+05     5.059482e-19
 2.600000e+05     5.140033e-19
 2.620000e+05     5.220423e-19
 2.640000e+05     5.299513e-19
 2.660000e+05     5.379415e-19
 2.680000e+05     5.459953e-19
 2.700000e+05     5.541558e-19
 2.720000e+05     5.625054e-19
 2.740000e+05     5.711079e-19
 2.760000e+05     5.799466e-19
 2.780000e+05     5.888374e-19
 2.800000e+05     5.978539e-19
 2.820000e+05     6.073501e-19
 2.840000e+05     6.170649e-19
 2.860000e+05     6.266929e-19
 2.880000e+05     6.364306e-19
 2.900000e+05     6.463230e-19
 2.920000e+05     6.563640e-19
 2.940000e+05     6.665391e-19
 2.960000e+05     6.768333e-19
 2.980000e+05     6.873584e-19
 3.000000e+05     6.981618e-19
 3.020000e+05     7.091356e-19
 3.040000e+05     7.202322e-19
 3.060000e+05     7.315238e-19
 3.080000e+05     7.429931e-19
 3.100000e+05     7.546571e-19
 3.120000e+05     7.665589e-19
 3.140000e+05     7.786486e-19
 3.160000e+05     7.909070e-19
 3.180000e+05     8.033723e-19
 3.200000e+05     8.160870e-19
 3.220000e+05     8.290377e-19
 3.240000e+05     8.421980e-19
 3.260000e+05     8.556939e-19
 3.280000e+05     8.694737e-19
 3.300000e+05     8.835249e-19
 3.320000e+05     8.979322e-19
 3.340000e+05     9.138034e-19
 3.360000e+05     9.318495e-19
 3.380000e+05     9.484538e-19
 3.400000e+05     9.634495e-19
 3.420000e+05     9.783257e-19
 3.440000e+05     9.933850e-19
 3.460000e+05     1.009103e-18
 3.480000e+05     1.028535e-18
 3.500000e+05     1.049946e-18
 3.520000e+05     1.067416e-18
 3.540000e+05     1.083476e-18
 3.560000e+05     1.099641e-18
 3.580000e+05     1.116049e-18
 3.600000e+05     1.132379e-18
 3.620000e+05     1.149113e-18
 3.640000e+05     1.166001e-18
 3.660000e+05     1.183127e-18
 3.680000e+05     1.200498e-18
 3.700000e+05     1.218094e-18
 3.720000e+05     1.236310e-18
 3.740000e+05     1.253068e-18
 3.760000e+05     1.271145e-18
 3.780000e+05     1.289843e-18
 3.800000e+05     1.308323e-18
 3.820000e+05     1.327013e-18
 3.840000e+05     1.345670e-18
 3.860000e+05     1.364552e-18
 3.880000e+05     1.383956e-18
 3.900000e+05     1.403344e-18
 3.920000e+05     1.422914e-18
 4.320000e+05     1.846817e-18
 4.760000e+05     2.371954e-18
 5.250000e+05     3.013392e-18
 5.790000e+05     3.773580e-18
 6.390000e+05     4.674178e-18
 7.040000e+05     5.707931e-18
 7.760000e+05     6.956925e-18
 8.560000e+05     8.452620e-18
 9.430000e+05     1.011133e-17
 1.040000e+06     1.185666e-17
 1.147000e+06     1.351865e-17
 1.264000e+06     1.492114e-17
 1.394000e+06     1.593464e-17
 1.537000e+06     1.644465e-17
 1.694000e+06     1.641532e-17
 1.868000e+06     1.586823e-17
 2.059000e+06     1.488895e-17
 2.270000e+06     1.358496e-17
 2.503000e+06     1.208219e-17
 2.760000e+06     1.050167e-17
 3.043000e+06     8.946325e-18
 3.354000e+06     7.491626e-18
 3.698000e+06     6.174884e-18
