## EBL from Khaire & Srianand 2018; Q15 Model with alpha=-1.5 
## Column1:wavelength (Angstrom);  Column2:EBL specific intensity J_nu (erg/s/cm^2/Hz/Sr)
## ===========================================================================================
 1.000000e-08     1.350099e-38
 1.122019e-08     1.963286e-38
 1.258925e-08     2.805181e-38
 1.412538e-08     3.925510e-38
 1.584893e-08     5.384749e-38
 1.778279e-08     7.253586e-38
 1.995263e-08     9.613261e-38
 2.238721e-08     1.255660e-37
 2.511887e-08     1.618966e-37
 2.818382e-08     2.063364e-37
 3.162278e-08     2.602744e-37
 3.548135e-08     3.253034e-37
 3.981071e-08     4.032550e-37
 4.466837e-08     4.962407e-37
 5.011870e-08     6.066938e-37
 5.623413e-08     7.374288e-37
 6.309576e-08     8.916968e-37
 7.079456e-08     1.073259e-36
 7.943284e-08     1.286477e-36
 8.912505e-08     1.536390e-36
 1.000000e-07     1.828853e-36
 1.122019e-07     2.170637e-36
 1.258925e-07     2.569588e-36
 1.412538e-07     3.034819e-36
 1.584892e-07     3.576862e-36
 1.778279e-07     4.207959e-36
 1.995263e-07     4.942273e-36
 2.238721e-07     5.796223e-36
 2.511887e-07     6.788854e-36
 2.818382e-07     7.942216e-36
 3.162278e-07     9.281898e-36
 3.548136e-07     1.083753e-35
 3.981071e-07     1.264343e-35
 4.466837e-07     1.473945e-35
 5.011870e-07     1.717166e-35
 5.623413e-07     1.999357e-35
 6.309576e-07     2.326713e-35
 7.079456e-07     2.706407e-35
 7.943284e-07     3.146768e-35
 8.912505e-07     3.657425e-35
 1.000000e-06     4.249564e-35
 1.122019e-06     4.936126e-35
 1.258925e-06     5.732104e-35
 1.412538e-06     6.654904e-35
 1.584893e-06     7.724652e-35
 1.778279e-06     8.964707e-35
 1.995263e-06     1.040213e-34
 2.238721e-06     1.206824e-34
 2.511887e-06     1.399940e-34
 2.818382e-06     1.623767e-34
 3.162278e-06     1.883188e-34
 3.548136e-06     2.183852e-34
 3.981071e-06     2.532307e-34
 4.466837e-06     2.936150e-34
 5.011870e-06     3.404168e-34
 5.623413e-06     3.946563e-34
 6.309576e-06     4.575141e-34
 7.079456e-06     5.303581e-34
 7.943284e-06     6.147755e-34
 8.912505e-06     7.126023e-34
 1.000000e-05     8.259702e-34
 1.122019e-05     9.573457e-34
 1.258925e-05     1.109586e-33
 1.412538e-05     1.286010e-33
 1.584893e-05     1.490451e-33
 1.778279e-05     1.727361e-33
 1.995263e-05     2.001898e-33
 2.238721e-05     2.320031e-33
 2.511887e-05     2.688689e-33
 2.818382e-05     3.115886e-33
 3.162278e-05     3.610927e-33
 3.548135e-05     4.184577e-33
 3.981071e-05     4.849317e-33
 4.466837e-05     5.619618e-33
 5.011870e-05     6.512227e-33
 5.623413e-05     7.546582e-33
 6.309577e-05     8.745184e-33
 7.079457e-05     1.013409e-32
 7.943284e-05     1.174355e-32
 8.912505e-05     1.360855e-32
 1.000000e-04     1.576970e-32
 1.122018e-04     1.827398e-32
 1.258926e-04     2.117189e-32
 1.412538e-04     2.445732e-32
 1.584893e-04     2.824156e-32
 1.778279e-04     3.262762e-32
 1.995262e-04     3.772458e-32
 2.238722e-04     4.365620e-32
 2.511887e-04     5.056664e-32
 2.818383e-04     5.862553e-32
 3.162278e-04     6.803287e-32
 3.548134e-04     7.902483e-32
 3.981073e-04     9.188070e-32
 4.466837e-04     1.069307e-31
 5.011873e-04     1.245660e-31
 5.623413e-04     1.452498e-31
 6.309572e-04     1.695316e-31
 7.079460e-04     1.980631e-31
 7.943284e-04     2.316176e-31
 8.912510e-04     2.711141e-31
 1.000000e-03     3.176447e-31
 1.122018e-03     3.725082e-31
 1.258926e-03     4.372504e-31
 1.412538e-03     5.137099e-31
 1.584893e-03     6.040780e-31
 1.778279e-03     7.109662e-31
 1.995262e-03     8.374869e-31
 2.238722e-03     9.873530e-31
 2.511887e-03     1.164993e-30
 2.818383e-03     1.375694e-30
 3.162278e-03     1.625770e-30
 3.548133e-03     1.922762e-30
 3.981073e-03     2.275684e-30
 4.466837e-03     2.695306e-30
 5.011873e-03     3.194521e-30
 5.623413e-03     3.788781e-30
 6.309573e-03     4.496673e-30
 7.079460e-03     5.340688e-30
 7.943284e-03     6.348273e-30
 8.912510e-03     7.553304e-30
 1.000000e-02     8.998011e-30
 1.122019e-02     1.073542e-29
 1.258925e-02     1.283216e-29
 1.412538e-02     1.537180e-29
 1.584894e-02     1.845794e-29
 1.778279e-02     2.221757e-29
 1.995263e-02     2.680437e-29
 2.238721e-02     3.240158e-29
 2.511887e-02     3.922568e-29
 2.818385e-02     4.752994e-29
 3.162277e-02     5.760910e-29
 3.548136e-02     6.980596e-29
 3.981071e-02     8.451806e-29
 4.466837e-02     1.022089e-28
 5.011876e-02     1.234193e-28
 5.623413e-02     1.487833e-28
 6.309576e-02     1.790481e-28
 7.079456e-02     2.150948e-28
 7.943284e-02     2.579688e-28
 8.912515e-02     3.089101e-28
 1.000000e-01     3.693932e-28
 1.122019e-01     4.412334e-28
 1.258925e-01     5.241625e-28
 1.412538e-01     6.154049e-28
 1.584894e-01     7.133993e-28
 1.778279e-01     8.171191e-28
 1.995263e-01     9.257587e-28
 2.238721e-01     1.038618e-27
 2.511887e-01     1.155086e-27
 2.818385e-01     1.274631e-27
 3.162278e-01     1.396809e-27
 3.548135e-01     1.521265e-27
 3.981071e-01     1.647727e-27
 4.466837e-01     1.776005e-27
 5.011876e-01     1.905982e-27
 5.623413e-01     2.037608e-27
 6.309576e-01     2.169816e-27
 7.079456e-01     2.292121e-27
 7.943284e-01     2.414192e-27
 8.912515e-01     2.540051e-27
 1.000000e+00     2.671566e-27
 1.122019e+00     2.810020e-27
 1.258925e+00     2.956671e-27
 1.412538e+00     3.112971e-27
 1.584894e+00     3.280628e-27
 1.778279e+00     3.461642e-27
 1.995263e+00     3.658316e-27
 2.238721e+00     3.873232e-27
 2.511887e+00     4.109199e-27
 2.818385e+00     4.369106e-27
 3.162278e+00     4.655667e-27
 3.548136e+00     4.970972e-27
 3.981071e+00     5.315738e-27
 4.466837e+00     5.688223e-27
 5.011876e+00     6.082658e-27
 5.623413e+00     6.487366e-27
 6.309576e+00     6.872576e-27
 7.079456e+00     7.169480e-27
 7.943284e+00     7.420252e-27
 8.912516e+00     7.554063e-27
 1.000000e+01     7.585382e-27
 1.122019e+01     7.425586e-27
 1.258925e+01     7.131755e-27
 1.412538e+01     6.681071e-27
 1.584894e+01     6.122103e-27
 1.778279e+01     5.495624e-27
 1.995263e+01     4.847874e-27
 2.238721e+01     4.214485e-27
 2.511887e+01     3.619989e-27
 2.818385e+01     3.082772e-27
 3.162278e+01     2.611094e-27
 3.548135e+01     2.203959e-27
 3.981071e+01     1.858151e-27
 4.466837e+01     1.566565e-27
 5.011876e+01     1.322754e-27
 5.623413e+01     1.118742e-27
 6.309576e+01     9.490411e-28
 7.079456e+01     8.077545e-28
 7.943284e+01     6.900604e-28
 8.912515e+01     5.924185e-28
 1.000000e+02     5.110137e-28
 1.120000e+02     4.446348e-28
 1.250000e+02     3.909182e-28
 1.400000e+02     3.447265e-28
 1.550000e+02     3.102868e-28
 1.650000e+02     2.919155e-28
 1.750000e+02     2.765885e-28
 1.850000e+02     2.642659e-28
 1.900000e+02     2.602875e-28
 1.950000e+02     2.595272e-28
 2.000000e+02     2.655152e-28
 2.050000e+02     2.857418e-28
 2.100000e+02     3.353962e-28
 2.150000e+02     4.441332e-28
 2.180000e+02     5.593621e-28
 2.210000e+02     7.341807e-28
 2.240000e+02     9.956561e-28
 2.260000e+02     1.236358e-27
 2.270000e+02     1.381866e-27
 2.275000e+02     1.461811e-27
 2.278400e+02     1.519114e-27
 2.380000e+02     1.010685e-23
 2.500000e+02     2.093095e-23
 2.700000e+02     2.629125e-23
 2.900000e+02     2.872945e-23
 3.035000e+02     3.021295e-23
 3.037800e+02     3.302555e-23
 3.045000e+02     3.275937e-23
 3.060000e+02     3.236757e-23
 3.080000e+02     3.202669e-23
 3.100000e+02     3.184201e-23
 3.120000e+02     3.177599e-23
 3.150000e+02     3.181666e-23
 3.200000e+02     3.212098e-23
 3.250000e+02     3.255709e-23
 3.300000e+02     3.305751e-23
 3.400000e+02     3.409099e-23
 3.600000e+02     3.616781e-23
 3.800000e+02     3.821557e-23
 4.050000e+02     4.073642e-23
 4.250000e+02     4.272347e-23
 4.500000e+02     4.515539e-23
 4.650000e+02     4.660348e-23
 4.750000e+02     4.756601e-23
 4.820000e+02     4.822604e-23
 4.870000e+02     4.870229e-23
 4.910000e+02     4.907801e-23
 4.950000e+02     4.946088e-23
 4.980000e+02     4.973717e-23
 5.000000e+02     4.992428e-23
 5.020000e+02     5.012076e-23
 5.039800e+02     5.030632e-23
 5.100000e+02     5.711507e-23
 5.250000e+02     6.403480e-23
 5.600000e+02     6.974242e-23
 6.000000e+02     7.438248e-23
 6.500000e+02     8.051864e-23
 7.000000e+02     8.803167e-23
 7.500000e+02     9.801553e-23
 8.000000e+02     1.116863e-22
 8.300000e+02     1.222617e-22
 8.600000e+02     1.351184e-22
 8.800000e+02     1.450340e-22
 8.900000e+02     1.504908e-22
 8.960000e+02     1.538878e-22
 9.000000e+02     1.562411e-22
 9.030000e+02     1.580299e-22
 9.060000e+02     1.598817e-22
 9.090000e+02     1.617332e-22
 9.117800e+02     1.634849e-22
 9.300000e+02     7.303449e-22
 9.500000e+02     1.870141e-21
 9.750000e+02     3.690525e-21
 9.900000e+02     4.479564e-21
 1.005000e+03     5.597256e-21
 1.025000e+03     7.107618e-21
 1.045000e+03     8.418042e-21
 1.065000e+03     1.031070e-20
 1.085000e+03     1.206005e-20
 1.105000e+03     1.369960e-20
 1.125000e+03     1.545728e-20
 1.145000e+03     1.694324e-20
 1.165000e+03     1.859268e-20
 1.185000e+03     1.996353e-20
 1.205000e+03     2.139758e-20
 1.215600e+03     2.193074e-20
 1.215670e+03     2.455633e-20
 1.216000e+03     2.456641e-20
 1.218000e+03     2.462736e-20
 1.221000e+03     2.471798e-20
 1.225000e+03     2.479349e-20
 1.230000e+03     2.488723e-20
 1.240000e+03     2.534588e-20
 1.250000e+03     2.595195e-20
 1.265000e+03     2.715473e-20
 1.285000e+03     2.836636e-20
 1.305000e+03     2.974092e-20
 1.325000e+03     3.115193e-20
 1.345000e+03     3.239156e-20
 1.365000e+03     3.367613e-20
 1.385000e+03     3.483445e-20
 1.405000e+03     3.584806e-20
 1.425000e+03     3.684772e-20
 1.442000e+03     3.764136e-20
 1.455000e+03     3.820572e-20
 1.475000e+03     3.907163e-20
 1.517000e+03     4.091886e-20
 1.595000e+03     4.306355e-20
 1.672000e+03     4.496033e-20
 1.745000e+03     4.641396e-20
 1.825000e+03     4.789926e-20
 1.905000e+03     4.858383e-20
 1.984000e+03     4.925860e-20
 2.065000e+03     4.966836e-20
 2.135000e+03     4.971199e-20
 2.215000e+03     4.978209e-20
 2.295000e+03     4.956771e-20
 2.375000e+03     4.939744e-20
 2.455000e+03     4.916282e-20
 2.525000e+03     4.889125e-20
 2.605000e+03     4.875729e-20
 2.685000e+03     4.879596e-20
 2.765000e+03     4.864296e-20
 2.845000e+03     4.840197e-20
 2.950000e+03     4.799108e-20
 3.110000e+03     4.785115e-20
 3.270000e+03     4.759696e-20
 3.430000e+03     4.729024e-20
 3.590000e+03     4.698875e-20
 3.730000e+03     4.716579e-20
 3.890000e+03     4.940572e-20
 4.050000e+03     5.229128e-20
 4.210000e+03     5.561479e-20
 4.370000e+03     5.847641e-20
 4.530000e+03     6.116649e-20
 4.690000e+03     6.352849e-20
 4.850000e+03     6.498295e-20
 5.010000e+03     6.646342e-20
 5.170000e+03     6.756907e-20
 5.330000e+03     6.858447e-20
 5.490000e+03     6.948443e-20
 5.650000e+03     7.031870e-20
 5.810000e+03     7.115246e-20
 5.970000e+03     7.171769e-20
 6.130000e+03     7.227898e-20
 6.290000e+03     7.277506e-20
 6.450000e+03     7.315342e-20
 6.610000e+03     7.348243e-20
 6.770000e+03     7.387184e-20
 6.930000e+03     7.417623e-20
 7.090000e+03     7.441185e-20
 7.250000e+03     7.463287e-20
 7.410000e+03     7.485174e-20
 7.570000e+03     7.512773e-20
 7.730000e+03     7.542943e-20
 7.890000e+03     7.569922e-20
 8.050000e+03     7.593717e-20
 8.210000e+03     7.616281e-20
 8.370000e+03     7.639219e-20
 8.530000e+03     7.661434e-20
 8.690000e+03     7.684518e-20
 8.850000e+03     7.722410e-20
 9.010000e+03     7.756061e-20
 9.170000e+03     7.795485e-20
 9.330000e+03     7.832873e-20
 9.490000e+03     7.871361e-20
 9.650000e+03     7.907858e-20
 9.810000e+03     7.940141e-20
 9.970000e+03     7.976883e-20
 1.050000e+04     8.050216e-20
 1.150000e+04     8.088033e-20
 1.250000e+04     8.084765e-20
 1.350000e+04     8.068922e-20
 1.450000e+04     8.073578e-20
 1.550000e+04     8.143616e-20
 1.650000e+04     8.152937e-20
 1.750000e+04     8.054344e-20
 1.850000e+04     7.879875e-20
 1.950000e+04     7.711920e-20
 2.050000e+04     7.572202e-20
 2.150000e+04     7.459941e-20
 2.250000e+04     7.377550e-20
 2.350000e+04     7.327735e-20
 2.450000e+04     7.312914e-20
 2.550000e+04     7.335230e-20
 2.650000e+04     7.396493e-20
 2.750000e+04     7.498149e-20
 2.850000e+04     7.641382e-20
 2.950000e+04     7.827135e-20
 3.050000e+04     8.055693e-20
 3.150000e+04     8.318875e-20
 3.250000e+04     8.582069e-20
 3.350000e+04     8.798236e-20
 3.450000e+04     8.964046e-20
 3.550000e+04     9.170768e-20
 3.650000e+04     9.390962e-20
 3.750000e+04     9.614445e-20
 3.850000e+04     9.841895e-20
 3.950000e+04     1.007273e-19
 4.050000e+04     1.030569e-19
 4.150000e+04     1.054020e-19
 4.250000e+04     1.077626e-19
 4.350000e+04     1.101411e-19
 4.450000e+04     1.125351e-19
 4.550000e+04     1.149421e-19
 4.650000e+04     1.173626e-19
 4.750000e+04     1.197970e-19
 4.850000e+04     1.222433e-19
 4.950000e+04     1.246989e-19
 5.050000e+04     1.271620e-19
 5.150000e+04     1.296313e-19
 5.250000e+04     1.321065e-19
 5.350000e+04     1.323804e-19
 5.450000e+04     1.324256e-19
 5.550000e+04     1.334263e-19
 5.650000e+04     1.344846e-19
 5.750000e+04     1.366800e-19
 5.850000e+04     1.394561e-19
 5.950000e+04     1.430863e-19
 6.050000e+04     1.481087e-19
 6.150000e+04     1.599858e-19
 6.250000e+04     1.806067e-19
 6.350000e+04     1.938872e-19
 6.450000e+04     1.996741e-19
 6.550000e+04     2.025631e-19
 6.650010e+04     2.046481e-19
 6.750010e+04     2.082442e-19
 6.850010e+04     2.110516e-19
 6.950010e+04     2.156118e-19
 7.020000e+04     2.194119e-19
 7.100000e+04     2.226878e-19
 7.180000e+04     2.264807e-19
 7.260000e+04     2.319426e-19
 7.340000e+04     2.392070e-19
 7.420000e+04     2.487700e-19
 7.500000e+04     2.617922e-19
 7.580000e+04     2.789189e-19
 7.660000e+04     2.976417e-19
 7.740000e+04     3.139865e-19
 7.820000e+04     3.281877e-19
 7.900000e+04     3.403565e-19
 7.980000e+04     3.495714e-19
 8.060000e+04     3.553796e-19
 8.140000e+04     3.588751e-19
 8.220000e+04     3.597229e-19
 8.300000e+04     3.599629e-19
 8.380000e+04     3.604401e-19
 8.460000e+04     3.608217e-19
 8.540000e+04     3.611941e-19
 8.620000e+04     3.625160e-19
 8.700000e+04     3.639919e-19
 8.780000e+04     3.629601e-19
 8.860000e+04     3.588439e-19
 8.940000e+04     3.529189e-19
 9.020000e+04     3.464843e-19
 9.100000e+04     3.400758e-19
 9.180000e+04     3.331625e-19
 9.260000e+04     3.263387e-19
 9.340000e+04     3.197689e-19
 9.420000e+04     3.135353e-19
 9.500000e+04     3.073837e-19
 9.580000e+04     3.013555e-19
 9.660000e+04     2.965466e-19
 9.740000e+04     2.922798e-19
 9.820000e+04     2.869532e-19
 9.900000e+04     2.819346e-19
 9.980000e+04     2.769814e-19
 1.006000e+05     2.726358e-19
 1.020000e+05     2.652428e-19
 1.040000e+05     2.561565e-19
 1.060000e+05     2.524424e-19
 1.080000e+05     2.504231e-19
 1.100000e+05     2.505484e-19
 1.120000e+05     2.701892e-19
 1.140000e+05     3.051788e-19
 1.160000e+05     3.155285e-19
 1.180000e+05     3.192352e-19
 1.200000e+05     3.215576e-19
 1.220000e+05     3.275019e-19
 1.240000e+05     3.326895e-19
 1.260000e+05     3.413074e-19
 1.280000e+05     3.567000e-19
 1.300000e+05     3.654290e-19
 1.320000e+05     3.591572e-19
 1.340000e+05     3.553506e-19
 1.360000e+05     3.494846e-19
 1.380000e+05     3.459994e-19
 1.400000e+05     3.380219e-19
 1.420000e+05     3.346421e-19
 1.440000e+05     3.284287e-19
 1.460000e+05     3.231513e-19
 1.480000e+05     3.161049e-19
 1.500000e+05     3.115528e-19
 1.520000e+05     3.063338e-19
 1.540000e+05     3.027688e-19
 1.560000e+05     3.039236e-19
 1.580000e+05     3.046752e-19
 1.600000e+05     3.032315e-19
 1.620000e+05     3.032691e-19
 1.640000e+05     3.075005e-19
 1.660000e+05     3.152520e-19
 1.680000e+05     3.206840e-19
 1.700000e+05     3.290566e-19
 1.720000e+05     3.405684e-19
 1.740000e+05     3.470178e-19
 1.760000e+05     3.516295e-19
 1.780000e+05     3.539977e-19
 1.800000e+05     3.550385e-19
 1.820000e+05     3.556588e-19
 1.840000e+05     3.549470e-19
 1.860000e+05     3.552990e-19
 1.880000e+05     3.639592e-19
 1.900000e+05     3.669055e-19
 1.920000e+05     3.669507e-19
 1.940000e+05     3.673104e-19
 1.960000e+05     3.679959e-19
 1.980000e+05     3.686169e-19
 2.000000e+05     3.694009e-19
 2.020000e+05     3.708049e-19
 2.040000e+05     3.724919e-19
 2.060000e+05     3.744855e-19
 2.080000e+05     3.768702e-19
 2.100000e+05     3.796001e-19
 2.120000e+05     3.826067e-19
 2.140000e+05     3.856980e-19
 2.160000e+05     3.890953e-19
 2.180000e+05     3.929003e-19
 2.200000e+05     3.967701e-19
 2.220000e+05     4.007158e-19
 2.240000e+05     4.051503e-19
 2.260000e+05     4.096994e-19
 2.280000e+05     4.143850e-19
 2.300000e+05     4.193488e-19
 2.320000e+05     4.246077e-19
 2.340000e+05     4.299734e-19
 2.360000e+05     4.353770e-19
 2.380000e+05     4.409767e-19
 2.400000e+05     4.468046e-19
 2.420000e+05     4.527487e-19
 2.440000e+05     4.587516e-19
 2.460000e+05     4.650058e-19
 2.480000e+05     4.714481e-19
 2.500000e+05     4.780455e-19
 2.520000e+05     4.847658e-19
 2.540000e+05     4.916308e-19
 2.560000e+05     4.986419e-19
 2.580000e+05     5.065724e-19
 2.600000e+05     5.157125e-19
 2.620000e+05     5.241758e-19
 2.640000e+05     5.318003e-19
 2.660000e+05     5.393976e-19
 2.680000e+05     5.470582e-19
 2.700000e+05     5.550301e-19
 2.720000e+05     5.630575e-19
 2.740000e+05     5.709701e-19
 2.760000e+05     5.790282e-19
 2.780000e+05     5.875176e-19
 2.800000e+05     5.961871e-19
 2.820000e+05     6.056505e-19
 2.840000e+05     6.154479e-19
 2.860000e+05     6.246876e-19
 2.880000e+05     6.337241e-19
 2.900000e+05     6.429299e-19
 2.920000e+05     6.521572e-19
 2.940000e+05     6.617269e-19
 2.960000e+05     6.715007e-19
 2.980000e+05     6.811808e-19
 3.000000e+05     6.909722e-19
 3.020000e+05     7.011167e-19
 3.040000e+05     7.114114e-19
 3.060000e+05     7.217372e-19
 3.080000e+05     7.324010e-19
 3.100000e+05     7.433671e-19
 3.120000e+05     7.543849e-19
 3.140000e+05     7.657527e-19
 3.160000e+05     7.775770e-19
 3.180000e+05     7.894762e-19
 3.200000e+05     8.017800e-19
 3.220000e+05     8.144657e-19
 3.240000e+05     8.274930e-19
 3.260000e+05     8.411410e-19
 3.280000e+05     8.559233e-19
 3.300000e+05     8.714457e-19
 3.320000e+05     8.863861e-19
 3.340000e+05     9.057921e-19
 3.360000e+05     9.328900e-19
 3.380000e+05     9.549001e-19
 3.400000e+05     9.682444e-19
 3.420000e+05     9.818374e-19
 3.440000e+05     9.968019e-19
 3.460000e+05     1.010093e-18
 3.480000e+05     1.035097e-18
 3.500000e+05     1.067712e-18
 3.520000e+05     1.088936e-18
 3.540000e+05     1.099880e-18
 3.560000e+05     1.113291e-18
 3.580000e+05     1.127266e-18
 3.600000e+05     1.139618e-18
 3.620000e+05     1.154357e-18
 3.640000e+05     1.168757e-18
 3.660000e+05     1.181865e-18
 3.680000e+05     1.195199e-18
 3.700000e+05     1.209023e-18
 3.720000e+05     1.223056e-18
 3.740000e+05     1.236930e-18
 3.760000e+05     1.251020e-18
 3.780000e+05     1.265339e-18
 3.800000e+05     1.279712e-18
 3.820000e+05     1.294713e-18
 3.840000e+05     1.309979e-18
 3.860000e+05     1.325334e-18
 3.880000e+05     1.340848e-18
 3.900000e+05     1.356009e-18
 3.920000e+05     1.371620e-18
 4.320000e+05     1.706089e-18
 4.760000e+05     2.101408e-18
 5.250000e+05     2.559978e-18
 5.790000e+05     3.076753e-18
 6.390000e+05     3.658065e-18
 7.040000e+05     4.295113e-18
 7.760000e+05     5.179504e-18
 8.560000e+05     6.351281e-18
 9.430000e+05     7.787851e-18
 1.040000e+06     9.465661e-18
 1.147000e+06     1.125889e-17
 1.264000e+06     1.298801e-17
 1.394000e+06     1.448477e-17
 1.537000e+06     1.555830e-17
 1.694000e+06     1.608915e-17
 1.868000e+06     1.603398e-17
 2.059000e+06     1.542301e-17
 2.270000e+06     1.434597e-17
 2.503000e+06     1.293194e-17
 2.760000e+06     1.132334e-17
 3.043000e+06     9.654755e-18
 3.354000e+06     8.035752e-18
 3.698000e+06     6.534465e-18
