## EBL from Khaire & Srianand 2018; Q15 Model with alpha=-1.5 
## Column1:wavelength (Angstrom);  Column2:EBL specific intensity J_nu (erg/s/cm^2/Hz/Sr)
## ===========================================================================================
 1.000000e-08     2.315402e-42
 1.122019e-08     3.372023e-42
 1.258925e-08     4.805178e-42
 1.412538e-08     6.697900e-42
 1.584893e-08     9.151129e-42
 1.778279e-08     1.228133e-41
 1.995263e-08     1.622153e-41
 2.238721e-08     2.112334e-41
 2.511887e-08     2.716002e-41
 2.818382e-08     3.452945e-41
 3.162278e-08     4.345861e-41
 3.548135e-08     5.420788e-41
 3.981071e-08     6.707681e-41
 4.466837e-08     8.241089e-41
 5.011870e-08     1.006084e-40
 5.623413e-08     1.221300e-40
 6.309576e-08     1.475083e-40
 7.079456e-08     1.773592e-40
 7.943284e-08     2.123969e-40
 8.912505e-08     2.534475e-40
 1.000000e-07     3.014697e-40
 1.122019e-07     3.575729e-40
 1.258925e-07     4.230428e-40
 1.412538e-07     4.993721e-40
 1.584892e-07     5.882867e-40
 1.778279e-07     6.917922e-40
 1.995263e-07     8.122092e-40
 2.238721e-07     9.522274e-40
 2.511887e-07     1.114968e-39
 2.818382e-07     1.304042e-39
 3.162278e-07     1.523644e-39
 3.548136e-07     1.778626e-39
 3.981071e-07     2.074614e-39
 4.466837e-07     2.418133e-39
 5.011870e-07     2.816735e-39
 5.623413e-07     3.279185e-39
 6.309576e-07     3.815631e-39
 7.079456e-07     4.437826e-39
 7.943284e-07     5.159415e-39
 8.912505e-07     5.996178e-39
 1.000000e-06     6.966435e-39
 1.122019e-06     8.091391e-39
 1.258925e-06     9.395609e-39
 1.412538e-06     1.090760e-38
 1.584893e-06     1.266035e-38
 1.778279e-06     1.469212e-38
 1.995263e-06     1.704724e-38
 2.238721e-06     1.977703e-38
 2.511887e-06     2.294106e-38
 2.818382e-06     2.660824e-38
 3.162278e-06     3.085856e-38
 3.548136e-06     3.578459e-38
 3.981071e-06     4.149358e-38
 4.466837e-06     4.811000e-38
 5.011870e-06     5.577782e-38
 5.623413e-06     6.466418e-38
 6.309576e-06     7.496250e-38
 7.079456e-06     8.689686e-38
 7.943284e-06     1.007273e-37
 8.912505e-06     1.167547e-37
 1.000000e-05     1.353281e-37
 1.122019e-05     1.568518e-37
 1.258925e-05     1.817939e-37
 1.412538e-05     2.106978e-37
 1.584893e-05     2.441920e-37
 1.778279e-05     2.830057e-37
 1.995263e-05     3.279837e-37
 2.238721e-05     3.801043e-37
 2.511887e-05     4.405022e-37
 2.818382e-05     5.104908e-37
 3.162278e-05     5.915942e-37
 3.548135e-05     6.855766e-37
 3.981071e-05     7.944820e-37
 4.466837e-05     9.206818e-37
 5.011870e-05     1.066919e-36
 5.623413e-05     1.236380e-36
 6.309577e-05     1.432749e-36
 7.079457e-05     1.660295e-36
 7.943284e-05     1.923976e-36
 8.912505e-05     2.229521e-36
 1.000000e-04     2.583586e-36
 1.122018e-04     2.993866e-36
 1.258926e-04     3.468781e-36
 1.412538e-04     4.004583e-36
 1.584893e-04     4.623244e-36
 1.778279e-04     5.341608e-36
 1.995262e-04     6.177053e-36
 2.238722e-04     7.149674e-36
 2.511887e-04     8.283086e-36
 2.818383e-04     9.605154e-36
 3.162278e-04     1.114877e-35
 3.548134e-04     1.295279e-35
 3.981073e-04     1.506316e-35
 4.466837e-04     1.753424e-35
 5.011873e-04     2.043039e-35
 5.623413e-04     2.382790e-35
 6.309572e-04     2.781720e-35
 7.079460e-04     3.250565e-35
 7.943284e-04     3.802059e-35
 8.912510e-04     4.451340e-35
 1.000000e-03     5.216401e-35
 1.122018e-03     6.118637e-35
 1.258926e-03     7.183525e-35
 1.412538e-03     8.441362e-35
 1.584893e-03     9.928266e-35
 1.778279e-03     1.168728e-34
 1.995262e-03     1.376972e-34
 2.238722e-03     1.623680e-34
 2.511887e-03     1.916153e-34
 2.818383e-03     2.263110e-34
 3.162278e-03     2.674965e-34
 3.548133e-03     3.164151e-34
 3.981073e-03     3.745540e-34
 4.466837e-03     4.436895e-34
 5.011873e-03     5.259487e-34
 5.623413e-03     6.238817e-34
 6.309573e-03     7.405574e-34
 7.079460e-03     8.796941e-34
 7.943284e-03     1.045836e-33
 8.912510e-03     1.244606e-33
 1.000000e-02     1.483025e-33
 1.122019e-02     1.769927e-33
 1.258925e-02     2.116422e-33
 1.412538e-02     2.536436e-33
 1.584894e-02     3.047206e-33
 1.778279e-02     3.669816e-33
 1.995263e-02     4.429705e-33
 2.238721e-02     5.357118e-33
 2.511887e-02     6.487688e-33
 2.818385e-02     7.863018e-33
 3.162277e-02     9.531450e-33
 3.548136e-02     1.154917e-32
 3.981071e-02     1.398131e-32
 4.466837e-02     1.690387e-32
 5.011876e-02     2.040559e-32
 5.623413e-02     2.459057e-32
 6.309576e-02     2.958160e-32
 7.079456e-02     3.552365e-32
 7.943284e-02     4.258878e-32
 8.912515e-02     5.098122e-32
 1.000000e-01     6.094392e-32
 1.122019e-01     7.277432e-32
 1.258925e-01     8.639798e-32
 1.412538e-01     1.012040e-31
 1.584894e-01     1.169917e-31
 1.778279e-01     1.336337e-31
 1.995263e-01     1.510174e-31
 2.238721e-01     1.690390e-31
 2.511887e-01     1.876059e-31
 2.818385e-01     2.066381e-31
 3.162278e-01     2.260687e-31
 3.548135e-01     2.458455e-31
 3.981071e-01     2.659288e-31
 4.466837e-01     2.862922e-31
 5.011876e-01     3.069202e-31
 5.623413e-01     3.278072e-31
 6.309576e-01     3.487190e-31
 7.079456e-01     3.676018e-31
 7.943284e-01     3.867242e-31
 8.912515e-01     4.066104e-31
 1.000000e+00     4.274120e-31
 1.122019e+00     4.492471e-31
 1.258925e+00     4.722420e-31
 1.412538e+00     4.965288e-31
 1.584894e+00     5.222278e-31
 1.778279e+00     5.494206e-31
 1.995263e+00     5.781061e-31
 2.238721e+00     6.081297e-31
 2.511887e+00     6.390829e-31
 2.818385e+00     6.701613e-31
 3.162278e+00     6.999893e-31
 3.548136e+00     7.264448e-31
 3.981071e+00     7.465601e-31
 4.466837e+00     7.566545e-31
 5.011876e+00     7.528641e-31
 5.623413e+00     7.321396e-31
 6.309576e+00     6.928757e-31
 7.079456e+00     6.339285e-31
 7.943284e+00     5.653275e-31
 8.912516e+00     4.933117e-31
 1.000000e+01     4.226390e-31
 1.122019e+01     3.569657e-31
 1.258925e+01     2.983918e-31
 1.412538e+01     2.477306e-31
 1.584894e+01     2.048510e-31
 1.778279e+01     1.690975e-31
 1.995263e+01     1.395670e-31
 2.238721e+01     1.152821e-31
 2.511887e+01     9.535647e-32
 2.818385e+01     7.903475e-32
 3.162278e+01     6.564748e-32
 3.548135e+01     5.465612e-32
 3.981071e+01     4.561837e-32
 4.466837e+01     3.817165e-32
 5.011876e+01     3.202016e-32
 5.623413e+01     2.693960e-32
 6.309576e+01     2.272710e-32
 7.079456e+01     1.923423e-32
 7.943284e+01     1.633068e-32
 8.912515e+01     1.391605e-32
 1.000000e+02     1.190399e-32
 1.120000e+02     1.025323e-32
 1.250000e+02     8.911253e-33
 1.400000e+02     7.750597e-33
 1.550000e+02     6.873495e-33
 1.650000e+02     6.401457e-33
 1.750000e+02     6.004150e-33
 1.850000e+02     5.682474e-33
 1.900000e+02     5.580047e-33
 1.950000e+02     5.565560e-33
 2.000000e+02     5.736202e-33
 2.050000e+02     6.296567e-33
 2.100000e+02     7.658935e-33
 2.150000e+02     1.062254e-32
 2.180000e+02     1.374890e-32
 2.210000e+02     1.847567e-32
 2.240000e+02     2.552157e-32
 2.260000e+02     3.198938e-32
 2.270000e+02     3.589273e-32
 2.275000e+02     3.803566e-32
 2.278400e+02     3.957091e-32
 2.380000e+02     2.233074e-24
 2.500000e+02     2.294620e-24
 2.700000e+02     2.393612e-24
 2.900000e+02     2.487781e-24
 3.035000e+02     2.548883e-24
 3.037800e+02     2.550668e-24
 3.045000e+02     2.553531e-24
 3.060000e+02     2.559940e-24
 3.080000e+02     2.568798e-24
 3.100000e+02     2.577524e-24
 3.120000e+02     2.586235e-24
 3.150000e+02     2.599212e-24
 3.200000e+02     2.620655e-24
 3.250000e+02     2.641883e-24
 3.300000e+02     2.662755e-24
 3.400000e+02     2.703843e-24
 3.600000e+02     2.783017e-24
 3.800000e+02     2.858699e-24
 4.050000e+02     2.948723e-24
 4.250000e+02     3.018008e-24
 4.500000e+02     3.101060e-24
 4.650000e+02     3.150880e-24
 4.750000e+02     3.183396e-24
 4.820000e+02     3.205931e-24
 4.870000e+02     3.221835e-24
 4.910000e+02     3.234437e-24
 4.950000e+02     3.246975e-24
 4.980000e+02     3.256278e-24
 5.000000e+02     3.262412e-24
 5.020000e+02     3.269197e-24
 5.039800e+02     3.276011e-24
 5.100000e+02     4.594478e-24
 5.250000e+02     4.635369e-24
 5.600000e+02     4.725918e-24
 6.000000e+02     4.845442e-24
 6.500000e+02     5.076723e-24
 7.000000e+02     5.440262e-24
 7.500000e+02     6.031783e-24
 8.000000e+02     6.911400e-24
 8.300000e+02     7.628940e-24
 8.600000e+02     8.511423e-24
 8.800000e+02     9.200498e-24
 8.900000e+02     9.577235e-24
 8.960000e+02     9.814594e-24
 9.000000e+02     9.977225e-24
 9.030000e+02     1.010176e-23
 9.060000e+02     1.022846e-23
 9.090000e+02     1.035669e-23
 9.117800e+02     1.047809e-23
 9.300000e+02     1.045807e-21
 9.500000e+02     2.151301e-21
 9.750000e+02     4.445132e-21
 9.900000e+02     5.219646e-21
 1.005000e+03     6.174919e-21
 1.025000e+03     7.909491e-21
 1.045000e+03     9.204722e-21
 1.065000e+03     1.100049e-20
 1.085000e+03     1.270064e-20
 1.105000e+03     1.424540e-20
 1.125000e+03     1.576938e-20
 1.145000e+03     1.709234e-20
 1.165000e+03     1.842720e-20
 1.185000e+03     1.961276e-20
 1.205000e+03     2.063575e-20
 1.215600e+03     2.109148e-20
 1.215670e+03     2.553650e-20
 1.216000e+03     2.556093e-20
 1.218000e+03     2.570518e-20
 1.221000e+03     2.590982e-20
 1.225000e+03     2.616041e-20
 1.230000e+03     2.604769e-20
 1.240000e+03     2.630327e-20
 1.250000e+03     2.663960e-20
 1.265000e+03     2.709912e-20
 1.285000e+03     2.801767e-20
 1.305000e+03     2.899433e-20
 1.325000e+03     2.944181e-20
 1.345000e+03     2.999909e-20
 1.365000e+03     3.035167e-20
 1.385000e+03     3.092951e-20
 1.405000e+03     3.119068e-20
 1.425000e+03     3.121444e-20
 1.442000e+03     3.114969e-20
 1.455000e+03     3.141751e-20
 1.475000e+03     3.164492e-20
 1.517000e+03     3.158322e-20
 1.595000e+03     3.119720e-20
 1.672000e+03     3.100148e-20
 1.745000e+03     2.904437e-20
 1.825000e+03     2.890940e-20
 1.905000e+03     2.849482e-20
 1.984000e+03     2.807666e-20
 2.065000e+03     2.770275e-20
 2.135000e+03     2.730360e-20
 2.215000e+03     2.693864e-20
 2.295000e+03     2.652399e-20
 2.375000e+03     2.608588e-20
 2.455000e+03     2.566367e-20
 2.525000e+03     2.527291e-20
 2.605000e+03     2.491981e-20
 2.685000e+03     2.470807e-20
 2.765000e+03     2.444588e-20
 2.845000e+03     2.410952e-20
 2.950000e+03     2.379711e-20
 3.110000e+03     2.336058e-20
 3.270000e+03     2.288204e-20
 3.430000e+03     2.243653e-20
 3.590000e+03     2.201092e-20
 3.730000e+03     2.182518e-20
 3.890000e+03     2.286467e-20
 4.050000e+03     2.367576e-20
 4.210000e+03     2.560332e-20
 4.370000e+03     2.692811e-20
 4.530000e+03     2.801446e-20
 4.690000e+03     2.895420e-20
 4.850000e+03     2.957132e-20
 5.010000e+03     2.984678e-20
 5.170000e+03     3.013121e-20
 5.330000e+03     3.023116e-20
 5.490000e+03     3.027650e-20
 5.650000e+03     3.027048e-20
 5.810000e+03     3.025888e-20
 5.970000e+03     3.013706e-20
 6.130000e+03     3.004746e-20
 6.290000e+03     2.991909e-20
 6.450000e+03     2.982359e-20
 6.610000e+03     2.972218e-20
 6.770000e+03     2.968841e-20
 6.930000e+03     2.963816e-20
 7.090000e+03     2.958422e-20
 7.250000e+03     2.952295e-20
 7.410000e+03     2.948919e-20
 7.570000e+03     2.948421e-20
 7.730000e+03     2.952628e-20
 7.890000e+03     2.955742e-20
 8.050000e+03     2.956775e-20
 8.210000e+03     2.959280e-20
 8.370000e+03     2.963407e-20
 8.530000e+03     2.966700e-20
 8.690000e+03     2.974143e-20
 8.850000e+03     2.989464e-20
 9.010000e+03     3.002324e-20
 9.170000e+03     3.014555e-20
 9.330000e+03     3.028986e-20
 9.490000e+03     3.051040e-20
 9.650000e+03     3.060383e-20
 9.810000e+03     3.074781e-20
 9.970000e+03     3.089327e-20
 1.050000e+04     3.118896e-20
 1.150000e+04     3.109261e-20
 1.250000e+04     3.086116e-20
 1.350000e+04     3.052623e-20
 1.450000e+04     3.038056e-20
 1.550000e+04     3.061108e-20
 1.650000e+04     3.081446e-20
 1.750000e+04     3.041372e-20
 1.850000e+04     2.972507e-20
 1.950000e+04     2.887756e-20
 2.050000e+04     2.795491e-20
 2.150000e+04     2.704998e-20
 2.250000e+04     2.620653e-20
 2.350000e+04     2.549341e-20
 2.450000e+04     2.494759e-20
 2.550000e+04     2.459050e-20
 2.650000e+04     2.442784e-20
 2.750000e+04     2.445772e-20
 2.850000e+04     2.467566e-20
 2.950000e+04     2.508012e-20
 3.050000e+04     2.567017e-20
 3.150000e+04     2.640373e-20
 3.250000e+04     2.711131e-20
 3.350000e+04     2.784928e-20
 3.450000e+04     2.854011e-20
 3.550000e+04     2.924034e-20
 3.650000e+04     2.997586e-20
 3.750000e+04     3.071620e-20
 3.850000e+04     3.146744e-20
 3.950000e+04     3.221834e-20
 4.050000e+04     3.296157e-20
 4.150000e+04     3.369339e-20
 4.250000e+04     3.441361e-20
 4.350000e+04     3.512159e-20
 4.450000e+04     3.581753e-20
 4.550000e+04     3.650427e-20
 4.650000e+04     3.718879e-20
 4.750000e+04     3.787771e-20
 4.850000e+04     3.857126e-20
 4.950000e+04     3.926543e-20
 5.050000e+04     3.995760e-20
 5.150000e+04     4.064747e-20
 5.250000e+04     4.133544e-20
 5.350000e+04     4.201071e-20
 5.450000e+04     4.247487e-20
 5.550000e+04     4.306486e-20
 5.650000e+04     4.379936e-20
 5.750000e+04     4.472430e-20
 5.850000e+04     4.538770e-20
 5.950000e+04     4.593861e-20
 6.050000e+04     4.704325e-20
 6.150000e+04     5.073913e-20
 6.250000e+04     5.773057e-20
 6.350000e+04     6.187101e-20
 6.450000e+04     6.247318e-20
 6.550000e+04     6.224500e-20
 6.650010e+04     6.290097e-20
 6.750010e+04     6.310567e-20
 6.850010e+04     6.322472e-20
 6.950010e+04     6.434551e-20
 7.020000e+04     6.547122e-20
 7.100000e+04     6.629124e-20
 7.180000e+04     6.738930e-20
 7.260000e+04     6.885754e-20
 7.340000e+04     7.082193e-20
 7.420000e+04     7.386224e-20
 7.500000e+04     7.823206e-20
 7.580000e+04     8.399136e-20
 7.660000e+04     9.030654e-20
 7.740000e+04     9.612771e-20
 7.820000e+04     1.010792e-19
 7.900000e+04     1.051573e-19
 7.980000e+04     1.081224e-19
 8.060000e+04     1.099265e-19
 8.140000e+04     1.107351e-19
 8.220000e+04     1.106157e-19
 8.300000e+04     1.102818e-19
 8.380000e+04     1.101573e-19
 8.460000e+04     1.100056e-19
 8.540000e+04     1.099964e-19
 8.620000e+04     1.103811e-19
 8.700000e+04     1.108387e-19
 8.780000e+04     1.104513e-19
 8.860000e+04     1.090544e-19
 8.940000e+04     1.070572e-19
 9.020000e+04     1.047125e-19
 9.100000e+04     1.022502e-19
 9.180000e+04     9.981062e-20
 9.260000e+04     9.743526e-20
 9.340000e+04     9.511507e-20
 9.420000e+04     9.281089e-20
 9.500000e+04     9.058579e-20
 9.580000e+04     8.853279e-20
 9.660000e+04     8.690688e-20
 9.740000e+04     8.537439e-20
 9.820000e+04     8.345988e-20
 9.900000e+04     8.156474e-20
 9.980000e+04     7.975138e-20
 1.006000e+05     7.801554e-20
 1.020000e+05     7.495928e-20
 1.040000e+05     7.101909e-20
 1.060000e+05     6.792368e-20
 1.080000e+05     6.542128e-20
 1.100000e+05     6.391740e-20
 1.120000e+05     6.914470e-20
 1.140000e+05     8.148038e-20
 1.160000e+05     8.606630e-20
 1.180000e+05     8.356557e-20
 1.200000e+05     8.482990e-20
 1.220000e+05     8.580385e-20
 1.240000e+05     8.668545e-20
 1.260000e+05     8.980970e-20
 1.280000e+05     9.564006e-20
 1.300000e+05     9.896520e-20
 1.320000e+05     9.752295e-20
 1.340000e+05     9.510312e-20
 1.360000e+05     9.499101e-20
 1.380000e+05     9.358804e-20
 1.400000e+05     9.094578e-20
 1.420000e+05     9.060645e-20
 1.440000e+05     8.929167e-20
 1.460000e+05     8.690721e-20
 1.480000e+05     8.552066e-20
 1.500000e+05     8.352856e-20
 1.520000e+05     8.151541e-20
 1.540000e+05     8.002537e-20
 1.560000e+05     7.987448e-20
 1.580000e+05     7.884829e-20
 1.600000e+05     7.762493e-20
 1.620000e+05     7.716193e-20
 1.640000e+05     7.750417e-20
 1.660000e+05     7.995024e-20
 1.680000e+05     8.159021e-20
 1.700000e+05     8.425334e-20
 1.720000e+05     8.702264e-20
 1.740000e+05     8.903779e-20
 1.760000e+05     9.008715e-20
 1.780000e+05     8.980962e-20
 1.800000e+05     8.958502e-20
 1.820000e+05     8.921068e-20
 1.840000e+05     8.902354e-20
 1.860000e+05     8.879125e-20
 1.880000e+05     9.174178e-20
 1.900000e+05     9.267349e-20
 1.920000e+05     9.291843e-20
 1.940000e+05     9.270377e-20
 1.960000e+05     9.267443e-20
 1.980000e+05     9.270958e-20
 2.000000e+05     9.297811e-20
 2.020000e+05     9.330055e-20
 2.040000e+05     9.350238e-20
 2.060000e+05     9.392228e-20
 2.080000e+05     9.447872e-20
 2.100000e+05     9.513549e-20
 2.120000e+05     9.569275e-20
 2.140000e+05     9.633650e-20
 2.160000e+05     9.711767e-20
 2.180000e+05     9.788743e-20
 2.200000e+05     9.859668e-20
 2.220000e+05     9.933516e-20
 2.240000e+05     1.002350e-19
 2.260000e+05     1.011469e-19
 2.280000e+05     1.019954e-19
 2.300000e+05     1.028353e-19
 2.320000e+05     1.037441e-19
 2.340000e+05     1.046738e-19
 2.360000e+05     1.055723e-19
 2.380000e+05     1.064822e-19
 2.400000e+05     1.074764e-19
 2.420000e+05     1.085561e-19
 2.440000e+05     1.096966e-19
 2.460000e+05     1.109225e-19
 2.480000e+05     1.122360e-19
 2.500000e+05     1.136427e-19
 2.520000e+05     1.151232e-19
 2.540000e+05     1.166649e-19
 2.560000e+05     1.182980e-19
 2.580000e+05     1.202439e-19
 2.600000e+05     1.225839e-19
 2.620000e+05     1.246232e-19
 2.640000e+05     1.263176e-19
 2.660000e+05     1.280282e-19
 2.680000e+05     1.297883e-19
 2.700000e+05     1.315335e-19
 2.720000e+05     1.333190e-19
 2.740000e+05     1.352588e-19
 2.760000e+05     1.372408e-19
 2.780000e+05     1.392753e-19
 2.800000e+05     1.414043e-19
 2.820000e+05     1.437514e-19
 2.840000e+05     1.461626e-19
 2.860000e+05     1.483940e-19
 2.880000e+05     1.505711e-19
 2.900000e+05     1.527805e-19
 2.920000e+05     1.550309e-19
 2.940000e+05     1.573164e-19
 2.960000e+05     1.596145e-19
 2.980000e+05     1.620094e-19
 3.000000e+05     1.644393e-19
 3.020000e+05     1.669044e-19
 3.040000e+05     1.694313e-19
 3.060000e+05     1.719756e-19
 3.080000e+05     1.745805e-19
 3.100000e+05     1.772616e-19
 3.120000e+05     1.800083e-19
 3.140000e+05     1.828177e-19
 3.160000e+05     1.856989e-19
 3.180000e+05     1.886522e-19
 3.200000e+05     1.916902e-19
 3.220000e+05     1.948764e-19
 3.240000e+05     1.981851e-19
 3.260000e+05     2.016167e-19
 3.280000e+05     2.051996e-19
 3.300000e+05     2.089300e-19
 3.320000e+05     2.129318e-19
 3.340000e+05     2.187414e-19
 3.360000e+05     2.271162e-19
 3.380000e+05     2.330434e-19
 3.400000e+05     2.365567e-19
 3.420000e+05     2.398381e-19
 3.440000e+05     2.431307e-19
 3.460000e+05     2.470170e-19
 3.480000e+05     2.553541e-19
 3.500000e+05     2.654386e-19
 3.520000e+05     2.705390e-19
 3.540000e+05     2.739182e-19
 3.560000e+05     2.771200e-19
 3.580000e+05     2.803247e-19
 3.600000e+05     2.836555e-19
 3.620000e+05     2.873822e-19
 3.640000e+05     2.898530e-19
 3.660000e+05     2.931802e-19
 3.680000e+05     2.970926e-19
 3.700000e+05     3.007937e-19
 3.720000e+05     3.045271e-19
 3.740000e+05     3.084828e-19
 3.760000e+05     3.126381e-19
 3.780000e+05     3.165148e-19
 3.800000e+05     3.196326e-19
 3.820000e+05     3.237177e-19
 3.840000e+05     3.281130e-19
 3.860000e+05     3.322097e-19
 3.880000e+05     3.363280e-19
 3.900000e+05     3.406092e-19
 3.920000e+05     3.447946e-19
 4.320000e+05     4.345729e-19
 4.760000e+05     5.407428e-19
 5.250000e+05     6.629931e-19
 5.790000e+05     7.999000e-19
 6.390000e+05     9.536208e-19
 7.040000e+05     1.121422e-18
 7.760000e+05     1.385517e-18
 8.560000e+05     1.789224e-18
 9.430000e+05     2.328484e-18
 1.040000e+06     2.982736e-18
 1.147000e+06     3.686008e-18
 1.264000e+06     4.347244e-18
 1.394000e+06     4.886107e-18
 1.537000e+06     5.226757e-18
 1.694000e+06     5.333582e-18
 1.868000e+06     5.206734e-18
 2.059000e+06     4.879705e-18
 2.270000e+06     4.404301e-18
 2.503000e+06     3.841430e-18
 2.760000e+06     3.248402e-18
 3.043000e+06     2.672557e-18
 3.354000e+06     2.145913e-18
 3.698000e+06     1.683866e-18
